120.038	1144.72
122.004	1121.97
123.97	1111.42
125.936	1106.84
127.901	1103.28
129.865	1100.85
131.828	1096.56
133.791	1093.04
135.752	1089.24
137.714	1091.25
139.675	1097.43
141.635	1095.97
143.594	1099
145.553	1103.56
147.51	1111.42
149.467	1125.61
151.425	1141.11
153.38	1151.92
155.335	1156.35
157.289	1149.73
159.243	1133.13
161.195	1112.67
163.148	1095.78
165.099	1087.71
167.051	1081.15
169.001	1076.48
170.95	1073.14
172.899	1070.72
174.847	1067.93
176.795	1065.58
178.742	1063.93
180.687	1062.99
182.633	1062.66
184.577	1062.36
186.521	1062.51
188.464	1061.89
190.407	1061.36
192.35	1060.77
194.291	1059.9
196.23	1058.27
198.17	1057.02
200.11	1056.09
202.048	1055.4
203.986	1054.9
205.923	1054.4
207.859	1054.3
209.795	1054.3
211.73	1054.39
213.665	1054.63
215.598	1055
217.531	1055.29
219.463	1055.75
221.395	1056.03
223.326	1056.28
225.256	1056.3
227.186	1056.09
229.114	1055.78
231.042	1055.62
232.97	1055.37
234.897	1055.38
236.823	1055.13
238.749	1054.67
240.673	1054.62
242.597	1054.85
244.521	1055.35
246.443	1056.48
248.366	1057.26
250.287	1058.3
252.207	1059.76
254.127	1061.37
256.046	1064.49
257.965	1067.49
259.883	1070.58
261.8	1075.01
263.716	1079.38
265.633	1084.05
267.547	1091.38
269.463	1100.23
271.376	1112.33
273.289	1133.33
275.202	1166.86
277.113	1203.57
279.025	1239.14
280.935	1267.34
282.845	1272.47
284.754	1258.15
286.663	1230.94
288.57	1189.94
290.478	1144.31
292.384	1110.27
294.29	1091.52
296.195	1080.84
298.099	1072.74
300.003	1065.28
301.907	1061.08
303.808	1059.32
305.711	1057.61
307.612	1054.17
309.512	1053.28
311.412	1052.85
313.31	1052.21
315.21	1051.35
317.107	1050.7
319.004	1049.96
320.9	1049.12
322.796	1048.68
324.691	1048.5
326.585	1048.13
328.48	1047.95
330.372	1047.75
332.264	1047.21
334.156	1046.78
336.047	1046.11
337.937	1045.43
339.827	1045.38
341.717	1045.04
343.605	1045.35
345.492	1045.39
347.38	1045.6
349.266	1045.79
351.151	1045.99
353.037	1045.83
354.922	1045.61
356.805	1045.12
358.688	1044.69
360.57	1044.09
362.452	1043.88
364.334	1043.62
366.214	1043.51
368.094	1043.3
369.973	1043.29
371.851	1042.92
373.728	1042.33
375.606	1042.29
377.482	1042.8
379.358	1043.15
381.233	1043.47
383.108	1043.66
384.982	1043.54
386.855	1043.33
388.727	1043.24
390.599	1043.2
392.47	1043.33
394.34	1043.62
396.21	1043.77
398.08	1043.79
399.948	1043.79
401.817	1043.69
403.683	1043.52
405.551	1043.31
407.416	1043.07
409.281	1042.89
411.146	1042.72
413.01	1042.65
414.874	1042.59
416.736	1042.59
418.598	1042.56
420.459	1042.54
422.32	1042.55
424.18	1042.91
426.04	1043.34
427.898	1043.71
429.756	1043.82
431.614	1043.64
433.471	1043.19
435.327	1042.82
437.182	1042.53
439.038	1042.14
440.892	1041.95
442.745	1041.91
444.599	1041.95
446.451	1041.92
448.302	1042.01
450.153	1041.93
452.003	1041.87
453.853	1042.15
455.702	1042.71
457.551	1042.79
459.399	1042.48
461.245	1042.24
463.092	1042.25
464.938	1042.42
466.783	1042.38
468.627	1042.42
470.471	1042.41
472.314	1042.42
474.157	1042.27
475.999	1041.72
477.84	1041.14
479.681	1040.61
481.521	1040.31
483.36	1040.08
485.198	1040.04
487.037	1040.05
488.875	1040.18
490.712	1040.06
492.548	1040.23
494.383	1039.66
496.218	1039.21
498.052	1038.95
499.885	1038.73
501.719	1038.87
503.551	1039.21
505.383	1039.66
507.214	1040.43
509.044	1040.99
510.874	1041.03
512.703	1041
514.532	1041.1
516.359	1041.32
518.187	1041.59
520.013	1041.73
521.839	1041.77
523.665	1041.63
525.489	1041.58
527.313	1041.55
529.137	1041.61
530.959	1041.16
532.781	1040.51
534.603	1039.81
536.424	1039.15
538.244	1038.68
540.064	1038.47
541.882	1038.45
543.701	1038.57
545.518	1038.76
547.336	1039.02
549.152	1039.37
550.968	1039.35
552.783	1039.41
554.598	1039.63
556.411	1039.29
558.224	1038.67
560.038	1038.5
561.85	1038.38
563.661	1038.11
565.472	1037.8
567.281	1037.87
569.091	1038.09
570.9	1038.43
572.708	1038.92
574.516	1039.14
576.323	1038.79
578.129	1038.33
579.935	1037.81
581.74	1037.36
583.545	1036.93
585.349	1036.56
587.152	1036.53
588.954	1036.62
590.757	1037.02
592.558	1037.5
594.358	1037.88
596.159	1038.41
597.958	1038.91
599.757	1039.48
601.555	1040.12
603.352	1040.74
605.15	1040.86
606.946	1040.92
608.742	1040.89
610.537	1040.87
612.332	1040.87
614.125	1040.83
615.919	1040.79
617.711	1040.69
619.503	1040.39
621.295	1039.93
623.085	1039.51
624.876	1038.94
626.666	1038.31
628.454	1037.76
630.242	1037.24
632.03	1036.91
633.817	1036.7
635.603	1036.61
637.389	1036.64
639.175	1036.75
640.96	1036.99
642.743	1037.5
644.527	1038.42
646.309	1039.39
648.091	1039.87
649.873	1040.04
651.653	1040.15
653.434	1040.14
655.214	1040.11
656.993	1040.11
658.772	1040.03
660.549	1039.85
662.327	1039.6
664.103	1039.29
665.879	1039.3
667.654	1039.49
669.429	1039.59
671.203	1039.81
672.977	1040.24
674.75	1040.37
676.521	1040.22
678.294	1040.09
680.064	1040.22
681.835	1040.58
683.605	1040.97
685.374	1041.03
687.143	1040.78
688.911	1040.81
690.679	1040.48
692.445	1040.2
694.211	1040.94
695.977	1040.71
697.742	1040.6
699.506	1040.69
701.27	1041.2
703.033	1041.66
704.795	1042.21
706.557	1044.86
708.319	1049.57
710.08	1055.01
711.84	1060.13
713.6	1063.58
715.358	1065.59
717.116	1064.13
718.875	1058.43
720.632	1054.75
722.388	1049.9
724.144	1045.77
725.899	1044.38
727.654	1042.19
729.408	1041.67
731.162	1041.37
732.914	1040.53
734.666	1039.96
736.418	1039.5
738.169	1038.82
739.92	1038.18
741.67	1037.77
743.419	1037.42
745.167	1037.26
746.916	1037.16
748.663	1036.65
750.41	1036.9
752.157	1037.31
753.902	1037.75
755.647	1038.27
757.392	1038.99
759.135	1039.75
760.879	1039.96
762.622	1039.93
764.363	1039.85
766.104	1039.78
767.846	1039.68
769.586	1039.58
771.326	1039.47
773.065	1039.35
774.803	1039.21
776.541	1039.1
778.279	1038.96
780.015	1038.77
781.751	1038.63
783.487	1038.59
785.221	1038.78
786.956	1039.09
788.689	1039.39
790.423	1039.62
792.155	1039.94
793.888	1040.17
795.618	1040.05
797.35	1039.61
799.08	1039.11
800.809	1038.7
802.538	1038.25
804.266	1037.84
805.994	1037.47
807.721	1037.11
809.448	1036.76
811.174	1036.65
812.899	1036.56
814.624	1036.56
816.349	1036.55
818.072	1036.44
819.795	1036.27
821.518	1036.18
823.24	1036.18
824.961	1036.09
826.681	1036.09
828.402	1036.05
830.121	1036.2
831.841	1036.64
833.559	1036.53
835.276	1036.44
836.994	1036.44
838.71	1036.5
840.426	1036.6
842.142	1036.75
843.856	1036.94
845.571	1037.16
847.284	1037.4
848.997	1037.66
850.71	1037.93
852.422	1038.25
854.134	1038.49
855.845	1038.63
857.554	1038.8
859.264	1038.92
860.973	1039.1
862.681	1039.23
864.389	1039.03
866.097	1038.74
867.803	1038.44
869.509	1038.3
871.215	1038.27
872.919	1038.29
874.624	1038.34
876.328	1037.94
878.031	1037.56
879.734	1037.36
881.436	1037.25
883.137	1037.22
884.838	1037.29
886.538	1037.59
888.238	1037.95
889.937	1038.28
891.635	1038.7
893.334	1039.42
895.031	1040.04
896.728	1040.25
898.424	1040.37
900.12	1040.34
901.815	1040.3
903.51	1040.3
905.203	1040.63
906.896	1040.81
908.59	1040.93
910.281	1040.91
911.974	1040.78
913.664	1040.64
915.355	1040.47
917.045	1040.29
918.734	1040.1
920.423	1039.82
922.111	1039.58
923.799	1039.45
925.485	1039.44
927.172	1039.33
928.858	1039.15
930.543	1039.26
932.228	1039.61
933.912	1039.85
935.596	1040.21
937.279	1041.15
938.961	1042.58
940.643	1043.7
942.324	1044.52
944.005	1045.05
945.685	1044.75
947.365	1043.57
949.044	1043.4
950.723	1042.02
952.401	1040.17
954.077	1038
955.755	1036.36
957.43	1038.48
959.107	1038.27
960.781	1038.08
962.456	1037.98
964.13	1037.91
965.803	1037.86
967.476	1037.88
969.148	1037.95
970.82	1038.05
972.49	1038.14
974.162	1038.1
975.831	1037.88
977.501	1037.87
979.169	1037.91
980.838	1038.03
982.505	1038.33
984.172	1038.68
985.839	1039.02
987.505	1039.06
989.171	1039.08
990.835	1039.27
992.499	1039.44
994.163	1039.55
995.826	1039.57
997.489	1039.39
999.151	1039.06
1000.81	1038.7
1002.47	1038.39
1004.13	1038.1
1005.79	1037.77
1007.45	1037.38
1009.11	1036.99
1010.77	1036.61
1012.43	1036.3
1014.08	1036.23
1015.74	1036.31
1017.4	1036.29
1019.05	1036.14
1020.71	1035.96
1022.36	1036
1024.01	1036.32
1025.67	1036.55
1027.32	1036.42
1028.97	1036.35
1030.62	1036.7
1032.27	1037.2
1033.93	1037.7
1035.57	1037.89
1037.22	1037.83
1038.87	1037.76
1040.52	1037.69
1042.17	1037.65
1043.82	1037.64
1045.46	1037.67
1047.11	1037.76
1048.75	1037.88
1050.4	1037.93
1052.04	1037.77
1053.38	1037.72
1055.05	1037.63
1056.72	1037.47
1058.39	1037.18
1060.06	1036.96
1061.73	1036.8
1063.4	1036.82
1065.07	1036.88
1066.73	1036.92
1068.4	1035.61
1070.07	1034.88
1071.73	1035.18
1073.4	1035.74
1075.06	1035.97
1076.72	1037.88
1078.39	1039.32
1080.05	1045.15
1081.71	1055.42
1083.37	1069.62
1085.03	1078.24
1086.7	1089.34
1088.35	1097.98
1090.01	1097.95
1091.67	1092.82
1093.33	1092.16
1094.99	1085.44
1096.65	1063.13
1098.3	1052.23
1099.96	1044.28
1101.61	1043.06
1103.27	1040.91
1104.92	1038.4
1106.58	1036.62
1108.23	1035.4
1109.88	1034.76
1111.54	1033.68
1113.19	1033.81
1114.84	1034.43
1116.49	1035.01
1118.14	1035.59
1119.79	1035.89
1121.44	1035.71
1123.08	1035.57
1124.73	1035.54
1126.38	1035.65
1128.03	1035.77
1129.67	1035.87
1131.32	1035.94
1132.96	1035.78
1134.61	1035.57
1136.25	1035.21
1137.9	1034.8
1139.54	1034.22
1141.18	1034.22
1142.82	1034.36
1144.46	1034.59
1146.1	1034.76
1147.75	1034.95
1149.38	1035.11
1151.02	1035.15
1152.66	1035.17
1154.3	1035
1155.94	1035.25
1157.57	1035.69
1159.21	1036.52
1160.85	1036.94
1162.48	1037.15
1164.12	1037.41
1165.75	1037.71
1167.38	1037.98
1169.02	1037.78
1170.65	1037.42
1172.28	1036.94
1173.91	1036.33
1175.55	1035.92
1177.18	1035.53
1178.81	1035.14
1180.43	1034.75
1182.06	1034.31
1183.69	1033.61
1185.32	1032.99
1186.95	1032.45
1188.57	1032.18
1190.2	1032.1
1191.82	1032.15
1193.45	1032.3
1195.07	1032.63
1196.7	1033.19
1198.32	1033.9
1199.94	1034.05
1201.57	1034.61
1203.19	1035.28
1204.81	1035.99
1206.43	1036.16
1208.05	1036.31
1209.67	1036.52
1211.29	1036.64
1212.91	1036.71
1214.53	1036.99
1216.14	1037.26
1217.76	1037.73
1219.38	1038.13
1220.99	1038.19
1222.61	1038.02
1224.22	1037.61
1225.84	1037.11
1227.45	1036.18
1229.07	1035.31
1230.68	1034.96
1232.29	1034.81
1233.9	1034.79
1235.51	1034.81
1237.12	1034.9
1238.73	1035.16
1240.34	1035.97
1241.95	1036.25
1243.56	1036.33
1245.17	1036.26
1246.78	1035.89
1248.38	1035.86
1249.99	1033.96
1251.6	1033.31
1253.2	1032.47
1254.81	1031.56
1256.41	1030.98
1258.01	1030.96
1259.62	1031.32
1261.22	1031.4
1262.82	1031.81
1264.42	1032.25
1266.02	1032.53
1267.63	1032.8
1269.23	1032.97
1270.82	1032.85
1272.42	1032.63
1274.02	1032.47
1275.62	1032.41
1277.22	1032.3
1278.81	1032.22
1280.41	1032.28
1282.01	1032.35
1283.6	1032.45
1285.2	1032.67
1286.79	1033.14
1288.39	1033.61
1289.98	1034
1291.57	1034.29
1293.16	1034.67
1294.75	1035.11
1296.35	1035.52
1297.94	1035.62
1299.53	1035.8
1301.12	1036
1302.71	1036.14
1304.29	1036.42
1305.88	1036.8
1307.47	1037.12
1309.06	1037.53
1310.64	1037.84
1312.23	1038.08
1313.81	1038.07
1315.4	1037.88
1316.98	1037.54
1318.57	1037.02
1320.15	1036.43
1321.73	1036.36
1323.32	1036.23
1324.9	1036.36
1326.48	1036.22
1328.06	1036.36
1329.64	1036.49
1331.22	1036.66
1332.8	1036.77
1334.38	1036.98
1335.96	1037.31
1337.53	1037.82
1339.11	1037.98
1340.69	1038
1342.26	1038.04
1343.84	1037.96
1345.41	1037.82
1346.99	1037.63
1348.56	1037.41
1350.14	1037.19
1351.71	1036.48
1353.28	1035.85
1354.85	1035.39
1356.42	1035.26
1358	1035.19
1359.57	1035.09
1361.14	1035.22
1362.71	1036.16
1364.27	1036.13
1365.84	1036.14
1367.41	1036.12
1368.98	1036.15
1370.54	1036.17
1372.11	1036.12
1373.68	1036.13
1375.24	1035.96
1376.81	1035.66
1378.37	1035.36
1379.94	1035.1
1381.5	1035.18
1383.06	1035.21
1384.62	1035.4
1386.19	1035.64
1387.75	1035.91
1389.31	1036.18
1390.87	1036.32
1392.43	1035.93
1393.99	1035.61
1395.54	1035.46
1397.1	1035.41
1398.66	1035.42
1400.22	1035.51
1401.77	1035.64
1403.33	1035.82
1404.89	1036
1406.44	1035.96
1408	1035.95
1409.55	1036.05
1411.1	1036.05
1412.66	1036.03
1414.21	1036.03
1415.76	1036.01
1417.31	1035.97
1418.86	1035.94
1420.41	1035.97
1421.96	1036.02
1423.51	1036.16
1425.06	1036.33
1426.61	1036.66
1428.16	1036.96
1429.71	1037.1
1431.25	1036.79
1432.8	1036.67
1434.35	1036.68
1435.89	1036.72
1437.44	1036.74
1438.98	1036.91
1440.53	1037.07
1442.07	1037.04
1443.61	1036.96
1445.15	1036.74
1446.7	1036.46
1448.24	1035.89
1449.78	1035.41
1451.32	1035.06
1452.86	1034.75
1454.4	1034.69
1455.94	1034.72
1457.48	1034.57
1459.01	1034.35
1460.55	1034.24
1462.09	1034.2
1463.63	1034.29
1465.16	1034.42
1466.7	1034.61
1468.23	1034.88
1469.77	1035.16
1471.3	1035.38
1472.83	1035.42
1474.37	1035.39
1475.9	1035.3
1477.43	1035.22
1478.96	1035.27
1480.49	1035.38
1482.02	1035.42
1483.56	1035.72
1485.08	1036.03
1486.61	1036.02
1488.14	1035.7
1489.67	1035.56
1491.2	1035.51
1492.72	1035.53
1494.25	1035.6
1495.78	1035.75
1497.3	1035.82
1498.83	1035.85
1500.35	1035.87
1501.88	1035.95
1503.4	1036.06
1504.92	1035.74
1506.45	1035.18
1507.97	1034.82
1509.49	1034.79
1511.01	1035
1512.53	1034.96
1514.05	1034.79
1515.57	1034.39
1517.09	1034.16
1518.61	1034.11
1520.13	1034.12
1521.64	1034.19
1523.16	1034.3
1524.68	1034.48
1526.19	1034.69
1527.71	1034.83
1529.23	1034.83
1530.74	1034.8
1532.25	1035.09
1533.77	1035.25
1535.28	1035.32
1536.79	1035.37
1538.31	1035.07
1539.82	1034.77
1541.33	1034.59
1542.84	1034.59
1544.35	1034.76
1545.86	1035.23
1547.37	1035.77
1548.88	1036.27
1550.39	1036.42
1551.9	1036.5
1553.4	1036.51
1554.91	1036.43
1556.42	1036.3
1557.92	1036.15
1559.43	1035.96
1560.93	1035.78
1562.44	1035.55
1563.94	1035.28
1565.44	1034.99
1566.95	1034.89
1568.45	1034.98
1569.95	1035.16
1571.45	1035.38
1572.95	1035.58
1574.46	1035.85
1575.96	1036.09
1577.45	1036.15
1578.95	1036.25
1580.45	1036.26
1581.95	1036.19
1583.45	1036.12
1584.95	1036.21
1586.44	1036.39
1587.94	1036.54
1589.43	1036.7
1590.93	1036.85
1592.42	1037.02
1593.92	1037.21
1595.41	1037.13
1596.91	1037.27
1598.4	1037.37
1599.89	1037.5
1601.38	1037.58
1602.87	1037.5
1604.37	1037.16
1605.86	1036.82
1607.35	1036.48
1608.84	1036.03
1610.32	1035.38
1611.81	1034.77
1613.3	1034.26
1614.79	1033.84
1616.28	1033.54
1617.76	1033.24
1619.25	1033.19
1620.73	1033.3
1622.22	1033.46
1623.7	1033.63
1625.19	1033.84
1626.67	1034.06
1628.16	1034.28
1629.64	1034.51
1631.12	1034.71
1632.6	1034.91
1634.08	1035.04
1635.56	1035.19
1637.05	1035.32
1638.52	1035.46
1640	1035.58
1641.48	1035.7
1642.96	1035.2
1644.44	1034.3
1645.92	1033.64
1647.4	1033.24
1648.87	1032.98
1650.35	1032.88
1651.82	1032.89
1653.3	1033.01
1654.77	1033.26
1656.25	1033.6
1657.72	1034
1659.19	1034.48
1660.67	1034.65
1662.14	1034.57
1663.61	1034.47
1665.08	1034.46
1666.55	1034.81
1668.02	1034.99
1669.49	1035.04
1670.96	1035.17
1672.43	1035.06
1673.9	1034.79
1675.37	1034.72
1676.84	1034.87
1678.3	1035.25
1679.77	1036.13
1681.24	1037.13
1682.7	1037.44
1684.17	1037.55
1685.63	1037.33
1687.1	1037.01
1688.56	1036.68
1690.02	1036.17
1691.49	1035.68
1692.95	1035.11
1694.41	1034.55
1695.87	1034
1697.34	1033.52
1698.8	1033.2
1700.26	1033.14
1701.72	1033.22
1703.17	1033.41
1704.63	1033.71
1706.09	1034.14
1707.55	1034.69
1709.01	1035.29
1710.46	1035.67
1711.92	1035.26
1713.38	1034.89
1714.83	1034.58
1716.29	1034.33
1717.74	1034.16
1719.19	1034.01
1720.65	1033.92
1722.1	1033.93
1723.55	1034
1725.01	1034.12
1726.46	1034.11
1727.91	1034.21
1729.36	1033.82
1730.81	1033.1
1732.26	1032.55
1733.71	1032.29
1735.16	1032.32
1736.61	1032.65
1738.06	1033.18
1739.5	1033.95
1740.95	1034.3
1742.4	1034.84
1743.84	1035.54
1745.29	1036.22
1746.73	1036.8
1748.18	1037.29
1749.62	1037.65
1751.07	1037.76
1752.51	1037.69
1753.95	1037.28
1755.4	1036.68
1756.84	1036.22
1758.28	1035.37
1759.72	1034
1761.16	1032.51
1762.6	1031.05
1764.04	1029.41
1765.48	1029.61
1766.92	1032.65
1768.36	1034.7
1769.8	1034.77
1771.23	1034.78
1772.67	1034.81
1774.11	1034.84
1775.54	1034.91
1776.98	1034.97
1778.41	1035.05
1779.85	1035.13
1781.28	1035.23
1782.72	1035.36
1784.15	1035.31
1785.58	1034.93
1787.02	1034.57
1788.45	1034.26
1789.88	1034.17
1791.31	1034.12
1792.74	1034.13
1794.17	1034.24
1795.6	1034.37
1797.03	1034.53
1798.46	1034.82
1799.89	1034.89
1801.31	1034.99
1802.74	1035.04
1804.17	1035.1
1805.6	1034.85
1807.02	1034.81
1808.45	1034.74
1809.87	1034.71
1811.3	1034.72
1812.72	1034.03
1814.14	1032.86
1815.57	1031.73
1816.99	1030.84
1818.41	1030.57
1819.84	1030.58
1821.26	1031.91
1822.68	1032.87
1824.1	1033.36
1825.52	1033.46
1826.94	1033.38
1828.36	1032.92
1829.78	1032.74
1831.19	1032.73
1832.61	1032.73
1834.03	1032.74
1835.45	1032.76
1836.86	1032.79
1838.28	1032.86
1839.7	1032.97
1841.11	1033.1
1842.52	1033.26
1843.19	1033.34
1844.63	1033.55
1846.07	1033.74
1847.51	1033.93
1848.94	1034.1
1850.38	1034.3
1851.82	1034.09
1853.25	1033.57
1854.69	1033.06
1856.12	1032.64
1857.56	1032.36
1858.99	1033.07
1860.43	1033.44
1861.86	1033.76
1863.29	1033.84
1864.73	1033.84
1866.16	1033.83
1867.59	1033.86
1869.02	1033.87
1870.45	1034.09
1871.88	1034.43
1873.31	1034.71
1874.74	1034.97
1876.17	1034.96
1877.6	1034.82
1879.03	1034.44
1880.45	1033.99
1881.88	1033.51
1883.31	1033.07
1884.73	1032.98
1886.16	1032.8
1887.59	1033.2
1889.01	1033.33
1890.44	1033.32
1891.86	1033.37
1893.28	1033.4
1894.71	1033.35
1896.13	1033.56
1897.55	1033.79
1898.97	1034
1900.4	1034.25
1901.82	1034.48
1903.24	1034.69
1904.66	1034.89
1906.08	1035.07
1907.5	1035.22
1908.91	1035.37
1910.33	1035.44
1911.75	1035.35
1913.17	1035.3
1914.58	1035.22
1916	1035.15
1917.42	1034.79
1918.83	1034.3
1920.25	1033.79
1921.66	1033.33
1923.08	1032.88
1924.49	1032.5
1925.9	1032.1
1927.32	1031.73
1928.73	1031.53
1930.14	1031.46
1931.55	1031.73
1932.96	1031.84
1934.38	1031.72
1935.79	1031.35
1937.2	1031.14
1938.61	1031.09
1940.01	1031.51
1941.42	1031.82
1942.83	1032.11
1944.24	1032.42
1945.65	1032.71
1947.05	1032.77
1948.46	1032.38
1949.87	1031.96
1951.27	1031.49
1952.68	1031.02
1954.08	1030.52
1955.49	1029.98
1956.89	1029.47
1958.29	1029.04
1959.7	1029.06
1961.1	1029.06
1962.5	1029.09
1963.9	1029.04
1965.3	1029.08
1966.7	1029.13
1968.1	1029.31
1969.5	1029.61
1970.9	1029.97
1972.3	1030.3
1973.7	1029.8
1975.1	1030.12
1976.5	1030.41
1977.89	1031.12
1979.29	1031.82
1980.69	1032.5
1982.08	1033.22
1983.48	1033.75
1984.87	1034.32
1986.27	1034.03
1987.66	1033.47
1989.06	1032.82
1990.45	1032.11
1991.84	1031.84
1993.23	1031.54
1994.63	1031.22
1996.02	1030.88
1997.41	1030.72
1998.8	1030.72
2000.19	1031.16
2001.58	1031.29
2002.97	1031.58
2004.36	1031.96
2005.75	1032.38
2007.14	1032.75
2008.52	1033.04
2009.91	1033.12
2011.3	1032.94
2012.68	1032.71
2014.07	1032.33
2015.46	1031.94
2016.84	1031.51
2018.23	1031.17
2019.61	1031.13
2020.99	1031.09
2022.38	1031.24
2023.76	1031.74
2025.14	1032.47
2026.52	1033.27
2027.91	1033.34
2029.29	1033.37
2030.67	1033.37
2032.05	1033.37
2033.43	1033.24
2034.81	1033.05
2036.19	1032.81
2037.57	1032.6
2038.95	1032.31
2040.32	1032.14
2041.7	1031.97
2043.08	1031.78
2044.45	1031.74
2045.83	1031.72
2047.21	1031.75
2048.58	1031.79
2049.96	1031.85
2051.33	1031.93
2052.7	1031.91
2054.08	1031.93
2055.45	1031.97
2056.82	1032.15
2058.2	1032.35
2059.57	1032.56
2060.94	1032.75
2062.31	1032.92
2063.68	1033.06
2065.05	1033.21
2066.42	1033.31
2067.79	1033.42
2069.16	1033.25
2070.53	1033.12
2071.9	1032.95
2073.26	1032.81
2074.63	1032.69
2076	1032.56
2077.36	1032.45
2078.73	1032.41
2080.1	1032.23
2081.46	1032.14
2082.83	1031.92
2084.19	1031.82
2085.55	1031.66
2086.92	1031.6
2088.28	1031.6
2089.64	1031.63
2091.01	1031.68
2092.37	1031.77
2093.73	1031.89
2095.09	1032.06
2096.45	1032.27
2097.81	1032.75
2099.17	1033.09
2100.53	1033.04
2101.89	1032.97
2103.25	1032.83
2104.61	1032.63
2105.96	1032.42
2107.32	1032.05
2108.68	1031.7
2110.03	1031.3
2111.39	1030.93
2112.74	1030.54
2114.1	1030.18
2115.45	1029.8
2116.81	1029.77
2118.16	1029.85
2119.52	1029.98
2120.87	1030.18
2122.22	1030.4
2123.57	1030.76
2124.93	1031.09
2126.28	1031.39
2127.63	1031.71
2128.98	1031.96
2130.33	1032.18
2131.68	1032.17
2133.03	1032.38
2134.38	1032.55
2135.72	1032.66
2137.07	1032.57
2138.42	1032.63
2139.77	1032.89
2141.11	1033.17
2142.46	1033.33
2143.81	1033.45
2145.15	1033.57
2146.5	1033.7
2147.84	1033.82
2149.19	1033.75
2150.53	1033.6
2151.87	1033.36
2153.22	1033.02
2154.56	1032.63
2155.9	1032.23
2157.24	1031.96
2158.58	1031.95
2159.93	1032.02
2161.27	1032.17
2162.61	1032.38
2163.95	1032.62
2165.28	1032.7
2166.62	1032.6
2167.96	1032.48
2169.3	1032.34
2170.64	1032.23
2171.98	1032.11
2173.31	1031.99
2174.65	1032.01
2175.98	1031.98
2177.32	1031.95
2178.66	1031.92
2179.99	1031.91
2181.32	1031.91
2182.66	1031.9
2183.99	1031.81
2185.33	1031.68
2186.66	1031.48
2187.99	1031.4
2189.32	1031.36
2190.65	1031.33
2191.99	1031.31
2193.32	1031.32
2194.65	1031.42
2195.98	1031.5
2197.31	1031.51
2198.63	1031.58
2199.96	1031.87
2201.29	1032.2
2202.62	1032.54
2203.95	1032.86
2205.27	1033.08
2206.6	1033.25
2207.93	1033.37
2209.25	1033.18
2210.58	1032.84
2211.9	1032.48
2213.23	1032.17
2214.55	1031.95
2215.88	1031.7
2217.2	1031.43
2218.52	1031.09
2219.84	1030.75
2221.17	1030.45
2222.49	1030.08
2223.81	1029.81
2225.13	1029.72
2226.45	1029.86
2227.77	1030.16
2229.09	1030.53
2230.41	1031.04
2231.73	1031.59
2233.05	1032.13
2234.37	1032.71
2235.68	1033.27
2237	1033.57
2238.32	1033.48
2239.64	1033.14
2240.95	1032.79
2242.27	1032.69
2243.58	1032.44
2244.9	1032.11
2246.21	1031.91
2247.53	1031.81
2248.84	1031.82
2250.15	1032
2251.47	1032.16
2252.78	1032.41
2254.09	1032.63
2255.4	1032.68
2256.71	1032.74
2258.02	1032.73
2259.33	1031.99
2260.65	1031.53
2261.96	1030.95
2263.26	1030.42
2264.57	1030.06
2265.88	1029.92
2267.19	1029.97
2268.5	1030.18
2269.8	1030.5
2271.11	1030.64
2272.42	1030.85
2273.72	1031.24
2275.03	1031.54
2276.33	1031.88
2277.64	1032.3
2278.94	1032.84
2280.25	1033.31
2281.55	1033.77
2282.86	1034.09
2284.16	1034.26
2285.46	1033.97
2286.76	1033.57
2288.06	1033.13
2289.37	1032.72
2290.67	1032.19
2291.97	1031.94
2293.27	1031.8
2294.57	1031.72
2295.87	1031.8
2297.17	1032
2298.46	1032.25
2299.76	1032.51
2301.06	1032.8
2302.36	1033.1
2303.66	1033.41
2304.95	1033.73
2306.25	1034.03
2307.54	1034.18
2308.84	1034.07
2310.13	1033.67
2311.43	1033.34
2312.72	1033.02
2314.02	1032.53
2315.31	1031.88
2316.6	1031.29
2317.9	1030.84
2319.19	1030.6
2320.48	1030.77
2321.77	1031.19
2323.06	1031.67
2324.35	1032.16
2325.64	1032.56
2326.93	1032.82
2328.22	1032.97
2329.51	1033.2
2330.8	1033.21
2332.09	1033.14
2333.38	1033.01
2334.66	1032.76
2335.95	1032.56
2337.24	1032.4
2338.52	1032.41
2339.81	1032.51
2341.1	1032.58
2342.38	1032.64
2343.67	1032.76
2344.95	1032.85
2346.23	1032.9
2347.52	1032.98
2348.8	1033.2
2350.08	1033.56
2351.37	1033.72
2352.65	1033.87
2353.93	1033.98
2355.21	1034.06
2356.49	1034.1
2357.77	1033.99
2359.05	1033.91
2360.33	1033.89
2361.61	1033.86
2362.89	1033.76
2364.17	1033.32
2365.45	1032.74
2366.73	1032.17
2368	1032.01
2369.28	1031.8
2370.56	1031.43
2371.83	1031.08
2373.11	1030.8
2374.38	1030.57
2375.66	1030.44
2376.93	1030.5
2378.21	1030.71
2379.48	1031.01
2380.76	1031.35
2382.03	1031.75
2383.3	1032.18
2384.57	1032.58
2385.85	1032.93
2387.12	1033.16
2388.39	1033.24
2389.66	1033.24
2390.93	1033.22
2392.2	1033.1
2393.47	1032.83
2394.74	1032.52
2396.01	1032.2
2397.28	1032.01
2398.54	1031.8
2399.81	1031.64
2401.08	1031.55
2402.35	1031.47
2403.61	1031.59
2404.88	1031.68
2406.15	1031.61
2407.41	1031.25
2408.68	1030.92
2409.94	1030.64
2411.2	1030.37
2412.47	1030.12
2413.73	1030.13
2415	1030.16
2416.26	1030.29
2417.52	1030.38
2418.78	1030.64
2420.04	1030.89
2421.31	1031.19
2422.57	1031.49
2423.83	1031.8
2425.09	1032.06
2426.35	1032.26
2427.61	1032.5
2428.87	1032.71
2430.12	1032.95
2431.38	1033.16
2432.64	1033.31
2433.9	1033.44
2435.15	1033.59
2436.41	1033.64
2437.67	1033.66
2438.92	1033.67
2440.18	1033.67
2441.43	1033.65
2442.69	1033.53
2443.94	1033.4
2445.2	1033.25
2446.45	1033.08
2447.7	1032.83
2448.96	1032.58
2450.21	1032.34
2451.46	1032.13
2452.71	1031.97
2453.96	1032
2455.22	1032.22
2456.47	1032.55
2457.72	1032.93
2458.97	1033.32
2460.22	1033.76
2461.46	1033.91
2462.71	1033.54
2463.96	1033.09
2465.21	1032.75
2466.46	1032.59
2467.7	1032.69
2468.95	1032.94
2470.2	1033.24
2471.44	1033.5
2472.69	1033.71
2473.93	1033.73
2475.18	1033.69
2476.42	1033.86
2477.67	1034.29
2478.91	1034.66
2480.16	1034.74
2481.4	1034.3
2482.64	1033.61
2483.88	1033.08
2485.13	1032.62
2486.37	1032.29
2487.61	1032.59
2488.85	1032.26
2490.09	1032.05
2491.33	1031.87
2492.57	1031.79
2493.81	1031.84
2495.05	1031.93
2496.29	1032.11
2497.53	1032.37
2498.76	1032.68
2500	1033
2501.24	1033.34
2502.47	1033.65
2503.71	1033.59
2504.95	1033.5
2506.18	1033.38
2507.42	1033.3
2508.65	1033.05
2509.89	1032.28
2511.12	1031.45
2512.35	1030.85
2513.59	1030.45
2514.82	1030.62
2516.05	1030.7
2517.29	1031.5
2518.52	1032.22
2519.75	1032.44
2520.98	1032.61
2522.21	1032.75
2523.44	1032.85
2524.67	1032.97
2525.9	1033.18
2526.56	1033.31
2527.81	1033.7
2529.06	1034.07
2530.31	1033.52
2531.56	1032.99
2532.81	1032.95
2534.06	1033.14
2535.31	1033.41
2536.56	1033.51
2537.81	1033.44
2539.06	1033.36
2540.3	1033.07
2541.55	1032.81
2542.8	1032.66
2544.04	1032.61
2545.29	1031.11
2546.54	1031.45
2547.78	1032.39
2549.03	1033.69
2550.27	1033.58
2551.52	1033.23
2552.76	1032.91
2554	1032.62
2555.25	1032.35
2556.49	1032.11
2557.73	1031.95
2558.97	1031.79
2560.22	1031.93
2561.46	1032.09
2562.7	1032.28
2563.94	1032.52
2565.18	1032.6
2566.42	1032.15
2567.66	1031.77
2568.9	1031.48
2570.14	1031.32
2571.38	1031.33
2572.61	1031.39
2573.85	1031.59
2575.09	1031.83
2576.33	1031.58
2577.56	1031.09
2578.8	1030.79
2580.03	1030.59
2581.27	1030.36
2582.51	1030.37
2583.74	1030.99
2584.98	1031.2
2586.21	1031.14
2587.44	1031.6
2588.68	1031.47
2589.91	1031.62
2591.14	1031.94
2592.37	1032.2
2593.61	1032.1
2594.84	1032
2596.07	1031.68
2597.3	1031.61
2598.53	1031.62
2599.76	1031.65
2600.99	1031.69
2602.22	1031.73
2603.45	1031.78
2604.68	1031.84
2605.91	1031.86
2607.13	1031.88
2608.36	1031.92
2609.59	1031.94
2610.81	1031.96
2612.04	1031.98
2613.27	1031.97
2614.49	1032.06
2615.72	1032.01
2616.94	1031.99
2618.17	1031.93
2619.39	1031.85
2620.62	1031.78
2621.84	1031.7
2623.06	1031.62
2624.29	1031.64
2625.51	1031.75
2626.73	1031.88
2627.95	1031.9
2629.17	1031.75
2630.4	1031.62
2631.62	1031.56
2632.84	1031.54
2634.06	1031.85
2635.28	1032.18
2636.5	1032.57
2637.71	1033.01
2638.93	1033.31
2640.15	1033.29
2641.37	1033.32
2642.59	1033.2
2643.8	1033.17
2645.02	1033.14
2646.24	1033.14
2647.45	1033.08
2648.67	1033.09
2649.88	1033.14
2651.1	1033.2
2652.31	1033.37
2653.53	1033.01
2654.74	1032.28
2655.96	1031.82
2657.17	1031.55
2658.38	1031.39
2659.59	1031.44
2660.81	1031.35
2662.02	1031.6
2663.23	1031.96
2664.44	1032.39
2665.65	1032.84
2666.86	1033.31
2668.07	1033.21
2669.28	1032.96
2670.49	1032.63
2671.7	1032.32
2672.91	1032.2
2674.12	1032.1
2675.32	1032.16
2676.53	1032.06
2677.74	1031.95
2678.94	1032.03
2680.15	1032.26
2681.36	1032.67
2682.56	1033.17
2683.77	1033.75
2684.97	1034.33
2686.18	1034.71
2687.38	1034.6
2688.59	1034.6
2689.79	1034.7
2690.99	1034.79
2692.2	1034.66
2693.4	1034.45
2694.6	1034.28
2695.8	1034.08
2697	1033.89
2698.21	1033.69
2699.41	1033.51
2700.61	1033.37
2701.81	1033.22
2703.01	1033.06
2704.21	1032.89
2705.41	1032.77
2706.6	1032.63
2707.8	1032.07
2709	1031.63
2710.2	1031.39
2711.4	1031.28
2712.59	1031.32
2713.79	1031.24
2714.98	1031.06
2716.18	1030.97
2717.38	1031.09
2718.57	1031.13
2719.77	1031.02
2720.96	1030.92
2722.15	1030.84
2723.35	1030.85
2724.54	1031.14
2725.74	1031.49
2726.93	1031.87
2728.12	1032.21
2729.31	1032.11
2730.5	1031.91
2731.7	1031.66
2732.89	1031.56
2734.08	1031.42
2735.27	1031.29
2736.46	1031.29
2737.65	1031.37
2738.84	1031.55
2740.02	1031.87
2741.21	1031.67
2742.4	1030.93
2743.59	1030.26
2744.78	1029.77
2745.96	1029.47
2747.15	1029.36
2748.34	1029.76
2749.52	1030.24
2750.71	1030.87
2751.89	1031.69
2753.08	1032.08
2754.26	1032.34
2755.45	1028.37
2756.63	1030.24
2757.82	1031.05
2759	1032.74
2760.18	1033.01
2761.37	1031.77
2762.55	1032.17
2763.73	1032.29
2764.91	1031.11
2766.09	1030.97
2767.27	1031.08
2768.45	1031.32
2769.63	1031.77
2770.81	1032.29
2771.99	1032.47
2773.17	1032.25
2774.35	1032
2775.53	1031.75
2776.71	1031.41
2777.89	1031.03
2779.06	1030.85
2780.24	1030.74
2781.42	1030.66
2782.59	1030.71
2783.77	1030.78
2784.95	1030.85
2786.12	1030.72
2787.3	1030.51
2788.47	1030.2
2789.65	1030.06
2790.82	1030.25
2791.99	1030.58
2793.17	1031.02
2794.34	1031.91
2795.51	1032.84
2796.68	1033.33
2797.86	1033.88
2799.03	1034.28
2800.2	1034.3
2801.37	1033.75
2802.54	1032.92
2803.71	1032.05
2804.88	1031.59
2806.05	1031.18
2807.22	1031.33
2808.39	1031.29
2809.56	1031.29
2810.73	1031.38
2811.89	1031.48
2813.06	1031.64
2814.23	1031.82
2815.4	1032.14
2816.56	1032.14
2817.73	1032.08
2818.89	1032.1
2820.06	1032.19
2821.22	1032.06
2822.39	1031.68
2823.55	1031.17
2824.72	1030.77
2825.88	1030.2
2827.05	1029.65
2828.21	1029.06
2829.37	1028.8
2830.53	1028.69
2831.7	1028.72
2832.86	1028.69
2834.02	1028.77
2835.18	1029.02
2836.34	1029.35
2837.5	1029.78
2838.66	1030.37
2839.82	1030.63
2840.98	1030.7
2842.14	1030.83
2843.3	1030.87
2844.46	1031.13
2845.62	1031.17
2846.77	1031.4
2847.93	1031.58
2849.09	1031.94
2850.24	1032.38
2851.4	1032.53
2852.56	1032.28
2853.71	1032
2854.87	1031.7
2856.02	1031.36
2857.18	1031
2858.33	1030.77
2859.49	1030.88
2860.64	1031.11
2861.79	1031.07
2862.95	1030.94
2864.1	1030.76
2865.25	1030.39
2866.4	1030.24
2867.55	1030.22
2868.71	1030.29
2869.86	1030.36
2871.01	1030.44
2872.16	1030.4
2873.31	1030.25
2874.46	1029.99
2875.61	1029.85
2876.76	1029.77
2877.91	1029.42
2879.05	1029.1
2880.2	1028.88
2881.35	1028.62
2882.5	1028.36
2883.64	1028.56
2884.79	1028.88
2885.94	1029.52
2887.08	1030.41
2888.23	1031.29
2889.37	1031.34
2890.52	1031.41
2891.66	1031.45
2892.81	1031.49
2893.95	1031.52
2895.1	1031.5
2896.24	1031.51
2897.38	1031.61
2898.52	1032.16
2899.67	1032.36
2900.81	1032.41
2901.95	1032.4
2903.09	1032.33
2904.23	1032.15
2905.37	1031.76
2906.51	1031.32
2907.65	1030.83
2908.79	1030.36
2909.93	1029.91
2911.07	1029.54
2912.21	1029.31
2913.35	1029.58
2914.49	1030.19
2915.63	1030.75
2916.76	1031.32
2917.9	1031.86
2919.04	1032.09
2920.17	1032.22
2921.31	1032.42
2922.45	1032.63
2923.58	1032.61
2924.72	1032.6
2925.85	1032.5
2926.99	1032.67
2928.12	1032.87
2929.25	1033.07
2930.39	1033.26
2931.52	1033.24
2932.65	1033.15
2933.79	1033.03
2934.92	1032.9
2936.05	1032.79
2937.18	1032.69
2938.31	1032.55
2939.44	1032.41
2940.57	1032.23
2941.7	1031.93
2942.83	1031.58
2943.96	1031.27
2945.09	1031.09
2946.22	1031.23
2947.35	1031.42
2948.48	1031.44
2949.61	1031.36
2950.73	1031.34
2951.86	1031.48
2952.99	1031.75
2954.11	1032.16
2955.24	1032.63
2956.37	1033.23
2957.49	1033.8
2958.62	1034.24
2959.74	1034.68
2960.87	1034.54
2961.99	1034.37
2963.12	1034.2
2964.24	1034
2965.36	1033.78
2966.49	1033.6
2967.61	1033.41
2968.73	1033.36
2969.85	1032.58
2970.97	1031.81
2972.1	1031.23
2973.22	1030.86
2974.34	1030.67
2975.46	1030.92
2976.58	1030.99
2977.7	1031.21
2978.82	1031.2
2979.94	1031.02
2981.06	1030.78
2982.17	1031.07
2983.29	1031.48
2984.41	1031.87
2985.53	1032.06
2986.64	1032.23
2987.76	1032.31
2988.88	1032.37
2989.99	1032.56
2991.11	1032.74
2992.23	1032.92
2993.34	1033.06
2994.46	1033.22
2995.57	1033.16
2996.69	1033.02
2997.8	1032.83
2998.91	1032.53
3000.03	1032.21
3001.14	1031.9
3002.25	1031.61
3003.36	1031.27
3004.48	1030.86
3005.59	1030.42
3006.7	1030.1
3007.81	1029.89
3008.92	1029.79
3010.03	1030.04
3011.14	1030.26
3012.25	1030.64
3013.36	1031.06
3014.47	1031.29
3015.58	1031.6
3016.69	1031.86
3017.8	1032.18
3018.9	1032.4
3020.01	1032.64
3021.12	1032.87
3022.23	1033.11
3023.33	1033.24
3024.44	1033.44
3025.55	1033.64
3026.65	1033.76
3027.76	1033.82
3028.86	1033.92
3029.97	1034.21
3031.07	1034.39
3032.18	1034.58
3033.28	1034.68
3034.38	1034.25
3035.49	1033.97
3036.59	1033.95
3037.69	1033.8
3038.79	1033.85
3039.89	1030.62
3041	1031.75
3042.1	1032.02
3043.2	1033.15
3044.3	1033.42
3045.4	1033.51
3046.5	1033.55
3047.6	1032.81
3048.7	1032.74
3049.8	1033.39
3050.9	1033.64
3051.99	1033.75
3053.09	1033.89
3054.19	1034.01
3055.29	1034.1
3056.38	1034.12
3057.48	1033.97
3058.58	1033.65
3059.67	1033.25
3060.77	1032.82
3061.87	1032.37
3062.96	1031.88
3064.06	1031.4
3065.15	1031.15
3066.25	1031.09
3067.34	1031.16
3068.43	1031.23
3069.53	1031.15
3070.62	1031.54
3071.71	1031.54
3072.8	1031.51
3073.9	1031.54
3074.99	1031.53
3076.08	1031.51
3077.17	1031.48
3078.26	1031.47
3079.35	1031.43
3080.44	1031.39
3081.53	1031.34
3082.62	1031.34
3083.71	1031.37
3084.8	1031.45
3085.89	1031.59
3086.98	1031.67
3088.06	1031.91
3089.15	1032.14
3090.24	1032.46
3091.33	1032.65
3092.41	1032.84
3093.5	1032.82
3094.59	1032.72
3095.67	1032.99
3096.76	1033.22
3097.84	1033.38
3098.93	1033.27
3100.01	1033.11
3101.1	1032.93
3102.18	1032.81
3103.27	1032.62
3104.35	1032.55
3105.43	1032.31
3106.51	1032.35
3107.6	1032.52
3108.68	1032.49
3109.76	1032.26
3110.84	1032.01
3111.92	1031.49
3113	1031.01
3114.09	1030.9
3115.17	1030.97
3116.24	1031.27
3117.32	1031.55
3118.4	1031.7
3119.48	1031.95
3120.56	1032.27
3121.64	1032.35
3122.72	1032.32
3123.24	1032.28
3124.34	1032.07
3125.44	1031.92
3126.53	1032.06
3127.63	1032.09
3128.73	1031.99
3129.82	1031.68
3130.92	1031.39
3132.02	1031.28
3133.11	1031.08
3134.21	1030.63
3135.3	1030.55
3136.39	1030.45
3137.49	1030.41
3138.58	1030.2
3139.68	1029.96
3140.77	1029.69
3141.86	1029.54
3142.96	1029.73
3144.05	1029.88
3145.14	1030.12
3146.23	1030.49
3147.32	1030.93
3148.41	1031.3
3149.5	1031.61
3150.59	1031.87
3151.69	1031.97
3152.78	1032.17
3153.86	1032.01
3154.95	1031.65
3156.04	1031.22
3157.13	1030.8
3158.22	1030.51
3159.31	1030.24
3160.4	1029.96
3161.48	1029.77
3162.57	1029.64
3163.66	1029.83
3164.74	1029.92
3165.83	1029.6
3166.92	1029.67
3168	1030.45
3169.09	1031.33
3170.17	1032.04
3171.25	1032.69
3172.34	1032.86
3173.42	1032.6
3174.51	1031.95
3175.59	1031.58
3176.67	1032.31
3177.76	1032.74
3178.84	1032.04
3179.92	1030.76
3181	1030.42
3182.08	1030.41
3183.17	1030.5
3184.25	1030.65
3185.33	1030.8
3186.41	1030.9
3187.49	1031
3188.57	1031.18
3189.65	1031.35
3190.73	1031.48
3191.81	1031.68
3192.89	1031.89
3193.96	1032.11
3195.04	1032.3
3196.12	1032
3197.2	1031.21
3198.27	1030.74
3199.35	1029.98
