120.038	1090
122.004	1099.5
123.97	1106.06
125.936	1107.26
127.901	1125.92
129.865	1123.75
131.828	1126.46
133.791	1107.47
135.752	1106.09
137.714	1152.16
139.675	1216.46
141.635	1274.95
143.594	1318.27
145.553	1403.45
147.51	1721.48
149.467	2109.05
151.425	2337.47
153.38	2510.4
155.335	2548.69
157.289	2364.53
159.243	1779.54
161.195	1421.08
163.148	1337.51
165.099	1208.13
167.051	1116.34
169.001	1075.69
170.95	1073.38
172.899	1062.23
174.847	1055.98
176.795	1051.34
178.742	1052.87
180.687	1052.8
182.633	1055.63
184.577	1059.68
186.521	1058.67
188.464	1051.13
190.407	1047.8
192.35	1055.17
194.291	1049.86
196.23	1053.12
198.17	1050.46
200.11	1042.75
202.048	1044.29
203.986	1051.16
205.923	1053.57
207.859	1043.78
209.795	1044.95
211.73	1041.79
213.665	1044.77
215.598	1051.83
217.531	1043.07
219.463	1051.67
221.395	1044.73
223.326	1050.14
225.256	1050.81
227.186	1045.97
229.114	1048.29
231.042	1047.66
232.97	1046.75
234.897	1051.09
236.823	1048.1
238.749	1047.99
240.673	1050.69
242.597	1053.97
244.521	1046.91
246.443	1053.58
248.366	1061.88
250.287	1075.98
252.207	1075.53
254.127	1076.9
256.046	1072.89
257.965	1064.81
259.883	1065.85
261.8	1081.25
263.716	1090.67
265.633	1088.02
267.547	1095.37
269.463	1098.24
271.376	1083.63
273.289	1058.5
275.202	1047
277.113	1050.55
279.025	1047.5
280.935	1047.94
282.845	1043.44
284.754	1046.89
286.663	1043.92
288.57	1042.47
290.478	1043.43
292.384	1044.36
294.29	1051.05
296.195	1044.39
298.099	1042.79
300.003	1047.6
301.907	1049.07
303.808	1047.14
305.711	1047.17
307.612	1044.04
309.512	1039.4
311.412	1039.64
313.31	1043.27
315.21	1048.68
317.107	1038.72
319.004	1041.61
320.9	1047.14
322.796	1042.13
324.691	1044.94
326.585	1052.98
328.48	1042.01
330.372	1046.63
332.264	1049.19
334.156	1056.19
336.047	1047.41
337.937	1041.27
339.827	1046.04
341.717	1035.23
343.605	1039.72
345.492	1045.8
347.38	1043.51
349.266	1042.14
351.151	1044.1
353.037	1045.82
354.922	1042.14
356.805	1050.02
358.688	1053.16
360.57	1063.1
362.452	1080.8
364.334	1171.99
366.214	1575.49
368.094	2295.31
369.973	2502.7
371.851	2612.66
373.728	2647.77
375.606	2629.67
377.482	1768.36
379.358	1191.06
381.233	1079.91
383.108	1046.85
384.982	1049.66
386.855	1043.42
388.727	1047.33
390.599	1044.55
392.47	1050.74
394.34	1052.42
396.21	1045.95
398.08	1052.91
399.948	1079.39
401.817	1098.14
403.683	1103.45
405.551	1112.4
407.416	1115.69
409.281	1096.03
411.146	1068.89
413.01	1054
414.874	1079.47
416.736	1160.65
418.598	1271.79
420.459	1379.13
422.32	1549.6
424.18	1679.55
426.04	1702.24
427.898	1586.81
429.756	1478.18
431.614	1367.17
433.471	1187.98
435.327	1078.81
437.182	1091.37
439.038	1130.67
440.892	1164.62
442.745	1180.78
444.599	1202.65
446.451	1292.43
448.302	1638.03
450.153	2289.61
452.003	2797.22
453.853	2895.38
455.702	2984.79
457.551	2958.6
459.399	2414.36
461.245	1409.04
463.092	1087.56
464.938	1049.42
466.783	1052.21
468.627	1043.97
470.471	1048.84
472.314	1043.21
474.157	1041.59
475.999	1045.85
477.84	1039.87
479.681	1045.66
481.521	1044.99
483.36	1039.11
485.198	1039.73
487.037	1040.99
488.875	1039.36
490.712	1042.97
492.548	1043.78
494.383	1043.67
496.218	1037.16
498.052	1036.98
499.885	1040.98
501.719	1038.99
503.551	1043.86
505.383	1035.22
507.214	1045.82
509.044	1035.46
510.874	1037.71
512.703	1038.82
514.532	1038.68
516.359	1038.44
518.187	1039.87
520.013	1037.99
521.839	1036.67
523.665	1043.63
525.489	1044.61
527.313	1040.59
529.137	1038.18
530.959	1042.44
532.781	1038.47
534.603	1038.24
536.424	1043.79
538.244	1039.44
540.064	1039.11
541.882	1038.82
543.701	1034.99
545.518	1037.65
547.336	1045.03
549.152	1040.62
550.968	1036.73
552.783	1041.6
554.598	1048.79
556.411	1042.49
558.224	1038.7
560.038	1044
561.85	1039.91
563.661	1039.52
565.472	1042.07
567.281	1045.99
569.091	1037.98
570.9	1044.93
572.708	1043.61
574.516	1041.11
576.323	1043.43
578.129	1038.51
579.935	1034.61
581.74	1039.16
583.545	1042.25
585.349	1038.64
587.152	1035.68
588.954	1038.98
590.757	1041.09
592.558	1038.3
594.358	1036.14
596.159	1042.54
597.958	1045.47
599.757	1043.97
601.555	1042.2
603.352	1032.87
605.15	1043.82
606.946	1043.61
608.742	1040.53
610.537	1041.21
612.332	1042.39
614.125	1047.66
615.919	1050.36
617.711	1050.84
619.503	1063.69
621.295	1065.32
623.085	1056.26
624.876	1063.85
626.666	1061.89
628.454	1056.1
630.242	1049.84
632.03	1078.94
633.817	1196.59
635.603	1277.52
637.389	1309.64
639.175	1322.98
640.96	1382.91
642.743	1531.41
644.527	1689.51
646.309	1752.03
648.091	1807.21
649.873	1815.99
651.653	1812.42
653.434	1602.11
655.214	1235.32
656.993	1076.3
658.772	1043.29
660.549	1037.26
662.327	1042.35
664.103	1046.79
665.879	1047.17
667.654	1043.97
669.429	1040.49
671.203	1040.86
672.977	1050.42
674.75	1038.43
676.521	1040.76
678.294	1042.77
680.064	1043.01
681.835	1045.75
683.605	1048.81
685.374	1052.84
687.143	1090.77
688.911	1155.44
690.679	1414.13
692.445	2499.96
694.211	4783.77
695.977	6487.44
697.742	6886.84
699.506	7124.53
701.27	7240.64
703.033	6240.34
704.795	3494.82
706.557	1476.38
708.319	1118.52
710.08	1065.07
711.84	1058.25
713.6	1051.95
715.358	1051.7
717.116	1047.99
718.875	1044.41
720.632	1048.92
722.388	1047.32
724.144	1057.46
725.899	1047.14
727.654	1051.1
729.408	1046.7
731.162	1042.58
732.914	1045.92
734.666	1049.26
736.418	1046.63
738.169	1045
739.92	1044.31
741.67	1040.83
743.419	1043.06
745.167	1054.87
746.916	1047.4
748.663	1049.8
750.41	1042.65
752.157	1041.75
753.902	1044.62
755.647	1050.63
757.392	1040.84
759.135	1040.18
760.879	1049.35
762.622	1049.78
764.363	1047.03
766.104	1041.93
767.846	1049.19
769.586	1051.32
771.326	1053.82
773.065	1050.63
774.803	1053.19
776.541	1053.76
778.279	1062.78
780.015	1053.81
781.751	1062.79
783.487	1073.76
785.221	1104.67
786.956	1226.99
788.689	1578.72
790.423	1816
792.155	1858.38
793.888	1877.96
795.618	1918.21
797.35	1931.13
799.08	1776.66
800.809	1983.64
802.538	3655.65
804.266	10720.4
805.994	24002.8
807.721	31801.7
809.448	32520
811.174	33487.8
812.899	34367.7
814.624	28811.6
816.349	14191.5
818.072	3272.64
819.795	1431.24
821.518	1206.15
823.24	1125.71
824.961	1108.96
826.681	1098.87
828.402	1091.24
830.121	1082.75
831.841	1077.62
833.559	1067.07
835.276	1074.4
836.994	1070.82
838.71	1068.61
840.426	1062.02
842.142	1066.78
843.856	1060.14
845.571	1063.92
847.284	1082.69
848.997	1099.9
850.71	1109.75
852.422	1119.22
854.134	1118.14
855.845	1149.05
857.554	1174.53
859.264	1251.7
860.973	1552.83
862.681	2772.33
864.389	4898.71
866.097	5279.97
867.803	5380.64
869.509	5432.27
871.215	5600.74
872.919	5031.71
874.624	2471.79
876.328	1397.56
878.031	1181.05
879.734	1140.62
881.436	1120.75
883.137	1088.17
884.838	1066.3
886.538	1065.73
888.238	1065.62
889.937	1064.38
891.635	1062.14
893.334	1063.17
895.031	1063.34
896.728	1071.53
898.424	1065.59
900.12	1052
901.815	1063.86
903.51	1066.63
905.203	1061.93
906.896	1061.01
908.59	1060.68
910.281	1055.51
911.974	1053.84
913.664	1055.88
915.355	1059.05
917.045	1059.76
918.734	1057.69
920.423	1062.9
922.111	1068.6
923.799	1094.25
925.485	1209.37
927.172	1409.45
928.858	1540.44
930.543	1547.85
932.228	1573.04
933.912	1579.51
935.596	1540.41
937.279	1364.95
938.961	1131.04
940.643	1064.52
942.324	1062.09
944.005	1055.75
945.685	1054.15
947.365	1054.33
949.044	1058.65
950.723	1056.59
952.401	1059.65
954.077	1073.71
955.755	1134.21
957.43	1207.56
959.107	1203.4
960.781	1204.26
962.456	1253.96
964.13	1278.68
965.803	1405.51
967.476	1618.06
969.148	2797.59
970.82	7078.81
972.49	13774.7
974.162	14559.4
975.831	14270.1
977.501	14418.8
979.169	14878.9
980.838	13698.5
982.505	6170.38
984.172	2130.25
985.839	1278.48
987.505	1123.14
989.171	1079.6
990.835	1069.99
992.499	1064.27
994.163	1056.09
995.826	1048.39
997.489	1049.71
999.151	1048.66
1000.81	1048.67
1002.47	1052.85
1004.13	1059.9
1005.79	1059.58
1007.45	1058.49
1009.11	1065.28
1010.77	1064.04
1012.43	1066.99
1014.08	1072.82
1015.74	1069.33
1017.4	1068.25
1019.05	1060.95
1020.71	1055.62
1022.36	1050.67
1024.01	1049.52
1025.67	1050.46
1027.32	1043.52
1028.97	1042.86
1030.62	1049.72
1032.27	1048.77
1033.93	1048.1
1035.57	1049.56
1037.22	1070.86
1038.87	1122.75
1040.52	1185.65
1042.17	1209.88
1043.82	1196.63
1045.46	1202.39
1047.11	1209.33
1048.75	1206.64
1050.4	1125.36
1052.04	1068.79
1053.38	1048.1
1055.05	1050.04
1056.72	1050.01
1058.39	1050.1
1060.06	1050.23
1061.73	1040.05
1063.4	1044.2
1065.07	1040.28
1066.73	1048.45
1068.4	1050.91
1070.07	1045.13
1071.73	1053.14
1073.4	1061.52
1075.06	1092.71
1076.72	1122.85
1078.39	1159.89
1080.05	1152.78
1081.71	1147.97
1083.37	1117.88
1085.03	1150.25
1086.7	1118.71
1088.35	1066.11
1090.01	1068.21
1091.67	1086.32
1093.33	1110.43
1094.99	1122.66
1096.65	1173
1098.3	1335.78
1099.96	1596.16
1101.61	1853.86
1103.27	2384.13
1104.92	2765.47
1106.58	2621
1108.23	2348.72
1109.88	2170.53
1111.54	2155.06
1113.19	2036.27
1114.84	1349.59
1116.49	1092.96
1118.14	1057.77
1119.79	1048.58
1121.44	1045.63
1123.08	1042.3
1124.73	1043.7
1126.38	1031.02
1128.03	1036.57
1129.67	1036.32
1131.32	1049.22
1132.96	1034.61
1134.61	1042.93
1136.25	1046.73
1137.9	1041.61
1139.54	1035.88
1141.18	1033.98
1142.82	1038.01
1144.46	1038.59
1146.1	1034.92
1147.75	1044.09
1149.38	1044.31
1151.02	1051.43
1152.66	1066.3
1154.3	1123.61
1155.94	1317.49
1157.57	1889.58
1159.21	2617.82
1160.85	3042.82
1162.48	3493.46
1164.12	3664.47
1165.75	3445.44
1167.38	2474.83
1169.02	1897.96
1170.65	1913.12
1172.28	1719.96
1173.91	1278.38
1175.55	1213.98
1177.18	1223.98
1178.81	1258.87
1180.43	1326.21
1182.06	1463.6
1183.69	1981.08
1185.32	3155.5
1186.95	3808.24
1188.57	4270.21
1190.2	4536.77
1191.82	4556.11
1193.45	3280.75
1195.07	1923.52
1196.7	1743.11
1198.32	1678.96
1199.94	1289.35
1201.57	1112.64
1203.19	1075.46
1204.81	1062.12
1206.43	1056.22
1208.05	1049.7
1209.67	1047.8
1211.29	1047.82
1212.91	1056.24
1214.53	1068.92
1216.14	1120.52
1217.76	1287.17
1219.38	1560.75
1220.99	1943.69
1222.61	2381.7
1224.22	2540.34
1225.84	2660.81
1227.45	2482.48
1229.07	2272.73
1230.68	1640.72
1232.29	1243.25
1233.9	1177.81
1235.51	1149.47
1237.12	1071.11
1238.73	1062.96
1240.34	1057.98
1241.95	1046.52
1243.56	1045.4
1245.17	1052.2
1246.78	1054.03
1248.38	1054.79
1249.99	1107.61
1251.6	1194.69
1253.2	1248.29
1254.81	1272.02
1256.41	1280.32
1258.01	1295
1259.62	1211.19
1261.22	1106.53
1262.82	1065.42
1264.42	1057.78
1266.02	1045.92
1267.63	1046.52
1269.23	1047.38
1270.82	1045.72
1272.42	1052.46
1274.02	1036.46
1275.62	1046
1277.22	1043.64
1278.81	1046.02
1280.41	1039.54
1282.01	1042.33
1283.6	1039.14
1285.2	1042.41
1286.79	1046.99
1288.39	1046.3
1289.98	1038.57
1291.57	1038.19
1293.16	1041.39
1294.75	1045.07
1296.35	1038.86
1297.94	1041.29
1299.53	1037.78
1301.12	1043.18
1302.71	1045.36
1304.29	1042.02
1305.88	1043.59
1307.47	1036.86
1309.06	1042.7
1310.64	1041.08
1312.23	1039.89
1313.81	1041.27
1315.4	1038.55
1316.98	1035.22
1318.57	1041.02
1320.15	1039.47
1321.73	1036.72
1323.32	1041.08
1324.9	1041.69
1326.48	1037.87
1328.06	1041.11
1329.64	1034.82
1331.22	1046.68
1332.8	1044.31
1334.38	1054.79
1335.96	1063.93
1337.53	1099.33
1339.11	1198.96
1340.69	1455.66
1342.26	1535.3
1343.84	1592.68
1345.41	1642.77
1346.99	1756.44
1348.56	1852.28
1350.14	2569.27
1351.71	5118.41
1353.28	7402.03
1354.85	9027.58
1356.42	10506.9
1358	11151.7
1359.57	10391.5
1361.14	7017.33
1362.71	4486.42
1364.27	3272.09
1365.84	1879.52
1367.41	1188.23
1368.98	1093
1370.54	1081
1372.11	1073.01
1373.68	1069.82
1375.24	1062.96
1376.81	1060.19
1378.37	1057.54
1379.94	1045.42
1381.5	1045.34
1383.06	1040.99
1384.62	1043.34
1386.19	1041.5
1387.75	1049.39
1389.31	1045.69
1390.87	1047.86
1392.43	1035.76
1393.99	1040.99
1395.54	1038.93
1397.1	1044.9
1398.66	1046
1400.22	1039.9
1401.77	1045.57
1403.33	1035.66
1404.89	1041.29
1406.44	1036.86
1408	1043.74
1409.55	1046.23
1411.1	1038.49
1412.66	1043.92
1414.21	1054.98
1415.76	1054.94
1417.31	1081.89
1418.86	1099.81
1420.41	1096.44
1421.96	1111.02
1423.51	1093.54
1425.06	1109.39
1426.61	1066.1
1428.16	1051.61
1429.71	1041.14
1431.25	1050.77
1432.8	1041.28
1434.35	1045.44
1435.89	1043.4
1437.44	1056.16
1438.98	1055.48
1440.53	1085.38
1442.07	1113.47
1443.61	1227.65
1445.15	1727.67
1446.7	3193.13
1448.24	4401.79
1449.78	4730.31
1451.32	4927.02
1452.86	5020.27
1454.4	4891.49
1455.94	2775.02
1457.48	1429
1459.01	1260.32
1460.55	1646.78
1462.09	2610.94
1463.63	3229.26
1465.16	3468.66
1466.7	3584.01
1468.23	3658.25
1469.77	3235.69
1471.3	2028.81
1472.83	1212.52
1474.37	1075.79
1475.9	1052.85
1477.43	1046.26
1478.96	1047.64
1480.49	1046.89
1482.02	1046.95
1483.56	1041.5
1485.08	1042.03
1486.61	1038.83
1488.14	1046.3
1489.67	1045.55
1491.2	1042.47
1492.72	1042.75
1494.25	1043.5
1495.78	1048.54
1497.3	1039.2
1498.83	1036.48
1500.35	1036.67
1501.88	1046.6
1503.4	1041.23
1504.92	1035.18
1506.45	1038.76
1507.97	1041.29
1509.49	1035.56
1511.01	1039.94
1512.53	1042.4
1514.05	1039.67
1515.57	1044.24
1517.09	1031.84
1518.61	1038.36
1520.13	1042.4
1521.64	1036.68
1523.16	1042.97
1524.68	1043.04
1526.19	1059.3
1527.71	1097.21
1529.23	1275.79
1530.74	1717
1532.25	1933.62
1533.77	2035.41
1535.28	1996.11
1536.79	2040.09
1538.31	1959.03
1539.82	1322.23
1541.33	1088.38
1542.84	1047.31
1544.35	1045.26
1545.86	1039.92
1547.37	1041.66
1548.88	1040.44
1550.39	1035.24
1551.9	1041.93
1553.4	1041.07
1554.91	1035.88
1556.42	1033.72
1557.92	1032.35
1559.43	1034.88
1560.93	1038.01
1562.44	1037.46
1563.94	1040.22
1565.44	1036.59
1566.95	1034.15
1568.45	1032.65
1569.95	1033.83
1571.45	1034.55
1572.95	1035.43
1574.46	1036.07
1575.96	1039.26
1577.45	1036.04
1578.95	1035.17
1580.45	1037.42
1581.95	1030.62
1583.45	1033.76
1584.95	1039.82
1586.44	1035.45
1587.94	1037.79
1589.43	1039.01
1590.93	1031.53
1592.42	1032.36
1593.92	1033.77
1595.41	1031.78
1596.91	1036.14
1598.4	1033.57
1599.89	1033.84
1601.38	1029.06
1602.87	1033.06
1604.37	1035.04
1605.86	1038
1607.35	1033.42
1608.84	1031.75
1610.32	1033.86
1611.81	1040.16
1613.3	1046.2
1614.79	1066.17
1616.28	1147.87
1617.76	1284.21
1619.25	1321.3
1620.73	1337.19
1622.22	1326.57
1623.7	1355.32
1625.19	1303.08
1626.67	1103.04
1628.16	1044.05
1629.64	1038.86
1631.12	1036.23
1632.6	1032.07
1634.08	1032.6
1635.56	1041.31
1637.05	1033.02
1638.52	1027.29
1640	1029.94
1641.48	1034.98
1642.96	1035.47
1644.44	1038.48
1645.92	1031.98
1647.4	1031.48
1648.87	1033.72
1650.35	1031.54
1651.82	1036.1
1653.3	1036.91
1654.77	1028.24
1656.25	1034.12
1657.72	1032.58
1659.19	1029.94
1660.67	1035.31
1662.14	1034.27
1663.61	1033.23
1665.08	1032.74
1666.55	1031.72
1668.02	1033.72
1669.49	1032.08
1670.96	1028.43
1672.43	1035.85
1673.9	1038.64
1675.37	1035.85
1676.84	1033.96
1678.3	1034.65
1679.77	1029.59
1681.24	1031.46
1682.7	1033.06
1684.17	1030.41
1685.63	1031.91
1687.1	1039.79
1688.56	1038.47
1690.02	1030.97
1691.49	1031.33
1692.95	1034.87
1694.41	1038.44
1695.87	1038.88
1697.34	1035.71
1698.8	1032.55
1700.26	1031.25
1701.72	1036.76
1703.17	1032.92
1704.63	1038.69
1706.09	1035.26
1707.55	1035.45
1709.01	1036.76
1710.46	1034.96
1711.92	1040.38
1713.38	1035.75
1714.83	1035.13
1716.29	1036.84
1717.74	1025.35
1719.19	1036.77
1720.65	1034.51
1722.1	1032.69
1723.55	1033.03
1725.01	1032.78
1726.46	1028.66
1727.91	1033.96
1729.36	1031.77
1730.81	1032.79
1732.26	1026.54
1733.71	1031.86
1735.16	1029.23
1736.61	1032.4
1738.06	1029.02
1739.5	1038.28
1740.95	1030.66
1742.4	1033.77
1743.84	1033.98
1745.29	1039.67
1746.73	1040.49
1748.18	1037.42
1749.62	1036.99
1751.07	1038.42
1752.51	1037.61
1753.95	1028.32
1755.4	1031.72
1756.84	1032.52
1758.28	1030.35
1759.72	1031.08
1761.16	1032.68
1762.6	1029.95
1764.04	1025.79
1765.48	1031.05
1766.92	1031.82
1768.36	1033.27
1769.8	1031.91
1771.23	1031.06
1772.67	1036.86
1774.11	1036.61
1775.54	1026.3
1776.98	1025.31
1778.41	1037.85
1779.85	1052.67
1781.28	1077.06
1782.72	1117.97
1784.15	1121.29
1785.58	1125.13
1787.02	1121.68
1788.45	1123.01
1789.88	1094.71
1791.31	1055.72
1792.74	1030.27
1794.17	1030.3
1795.6	1033.35
1797.03	1032.6
1798.46	1025.23
1799.89	1037.56
1801.31	1035.77
1802.74	1035.89
1804.17	1035.68
1805.6	1041.38
1807.02	1049.23
1808.45	1060.73
1809.87	1108.84
1811.3	1302.23
1812.72	1657.34
1814.14	1762.13
1815.57	1739.15
1816.99	1750.57
1818.41	1779.96
1819.84	1822.8
1821.26	1511.48
1822.68	1177.84
1824.1	1058.64
1825.52	1036.65
1826.94	1031.07
1828.36	1032.94
1829.78	1035.32
1831.19	1029.24
1832.61	1027.32
1834.03	1034.27
1835.45	1031.77
1836.86	1031.7
1838.28	1030.55
1839.7	1028.02
1841.11	1033.52
1842.52	1034.78
1843.19	1032.04
1844.63	1026.07
1846.07	1033.91
1847.51	1030.09
1848.94	1031.91
1850.38	1028.04
1851.82	1031.96
1853.25	1035.88
1854.69	1039.84
1856.12	1028.23
1857.56	1030.36
1858.99	1030.19
1860.43	1035.92
1861.86	1033.75
1863.29	1038.11
1864.73	1036.5
1866.16	1035.28
1867.59	1034.85
1869.02	1039.57
1870.45	1075.81
1871.88	1126.88
1873.31	1187.35
1874.74	1320.33
1876.17	1480.77
1877.6	1521.59
1879.03	1461.83
1880.45	1372.78
1881.88	1396.45
1883.31	1443.61
1884.73	1224.44
1886.16	1070.06
1887.59	1052.1
1889.01	1033.08
1890.44	1043.95
1891.86	1062.2
1893.28	1105.69
1894.71	1172.14
1896.13	1232.24
1897.55	1321.09
1898.97	1387.05
1900.4	1376.85
1901.82	1356.2
1903.24	1305.58
1904.66	1334.31
1906.08	1314.14
1907.5	1205.62
1908.91	1127.07
1910.33	1091.37
1911.75	1079.52
1913.17	1085.65
1914.58	1064.02
1916	1028.29
1917.42	1033.7
1918.83	1032.3
1920.25	1031.13
1921.66	1029.19
1923.08	1030.42
1924.49	1030.24
1925.9	1034.19
1927.32	1029.1
1928.73	1026.98
1930.14	1033.6
1931.55	1033.34
1932.96	1030.15
1934.38	1031.21
1935.79	1033.36
1937.2	1030.85
1938.61	1034.63
1940.01	1026.35
1941.42	1032.04
1942.83	1026.09
1944.24	1029.79
1945.65	1027.91
1947.05	1031.28
1948.46	1036
1949.87	1027.77
1951.27	1027.66
1952.68	1023.69
1954.08	1035.05
1955.49	1029.85
1956.89	1034.84
1958.29	1045.26
1959.7	1060.08
1961.1	1061.24
1962.5	1067.43
1963.9	1071.55
1965.3	1072.64
1966.7	1051.61
1968.1	1037.22
1969.5	1035.69
1970.9	1042.35
1972.3	1027.27
1973.7	1033.13
1975.1	1025.04
1976.5	1034.88
1977.89	1034.36
1979.29	1036.27
1980.69	1033.6
1982.08	1034.23
1983.48	1046.55
1984.87	1046.13
1986.27	1075.8
1987.66	1166.53
1989.06	1322.28
1990.45	1349.26
1991.84	1399.43
1993.23	1416.47
1994.63	1432.07
1996.02	1228.67
1997.41	1089.59
1998.8	1087.23
2000.19	1098.65
2001.58	1097.15
2002.97	1139.66
2004.36	1182.83
2005.75	1207.76
2007.14	1200.64
2008.52	1186.25
2009.91	1184.81
2011.3	1120.79
2012.68	1050.13
2014.07	1049.55
2015.46	1066.7
2016.84	1118.76
2018.23	1260.83
2019.61	1359.24
2020.99	1390.29
2022.38	1412.68
2023.76	1446.95
2025.14	1335.23
2026.52	1143.36
2027.91	1052.04
2029.29	1040.91
2030.67	1040.85
2032.05	1038.88
2033.43	1031.62
2034.81	1032.19
2036.19	1036.56
2037.57	1030.21
2038.95	1029.3
2040.32	1032.91
2041.7	1028.33
2043.08	1029.38
2044.45	1031.84
2045.83	1034.83
2047.21	1028.61
2048.58	1032.07
2049.96	1033.62
2051.33	1033.19
2052.7	1032.41
2054.08	1026.33
2055.45	1034.66
2056.82	1032.98
2058.2	1030.19
2059.57	1034.77
2060.94	1037.01
2062.31	1030.37
2063.68	1024.88
2065.05	1027.62
2066.42	1033.38
2067.79	1032.96
2069.16	1033.83
2070.53	1051.33
2071.9	1092.43
2073.26	1134.53
2074.63	1144.25
2076	1153.83
2077.36	1162.09
2078.73	1155.66
2080.1	1069.86
2081.46	1029.4
2082.83	1035.36
2084.19	1030.07
2085.55	1030.71
2086.92	1032.65
2088.28	1034.56
2089.64	1030.6
2091.01	1026.29
2092.37	1026.12
2093.73	1028.08
2095.09	1031.86
2096.45	1031.13
2097.81	1035.89
2099.17	1028.29
2100.53	1027.22
2101.89	1028.41
2103.25	1028.95
2104.61	1030.91
2105.96	1028.37
2107.32	1026.18
2108.68	1036.13
2110.03	1026.98
2111.39	1026.04
2112.74	1031.29
2114.1	1028.56
2115.45	1030.55
2116.81	1022.03
2118.16	1032.77
2119.52	1032.38
2120.87	1029.93
2122.22	1030.58
2123.57	1030.08
2124.93	1037.24
2126.28	1037.78
2127.63	1038.28
2128.98	1068.93
2130.33	1136.62
2131.68	1261.79
2133.03	1344.03
2134.38	1359.43
2135.72	1381.69
2137.07	1393.87
2138.42	1313.81
2139.77	1132.45
2141.11	1048.08
2142.46	1029.3
2143.81	1034.87
2145.15	1029.48
2146.5	1027.83
2147.84	1030.37
2149.19	1024.72
2150.53	1031.13
2151.87	1027.06
2153.22	1029.62
2154.56	1028.16
2155.9	1037.36
2157.24	1031.67
2158.58	1029.74
2159.93	1029.17
2161.27	1025.49
2162.61	1030.53
2163.95	1033.69
2165.28	1028.36
2166.62	1037.28
2167.96	1052.56
2169.3	1092.51
2170.64	1154.13
2171.98	1146.26
2173.31	1159.77
2174.65	1162.81
2175.98	1177.9
2177.32	1090.59
2178.66	1042.04
2179.99	1031.63
2181.32	1033.2
2182.66	1031.57
2183.99	1032.05
2185.33	1031.1
2186.66	1027.72
2187.99	1034.2
2189.32	1030.78
2190.65	1031.98
2191.99	1028.62
2193.32	1030.55
2194.65	1038.52
2195.98	1036.25
2197.31	1034.96
2198.63	1052.72
2199.96	1091.18
2201.29	1139.26
2202.62	1158.44
2203.95	1162.06
2205.27	1176.05
2206.6	1180.11
2207.93	1117.54
2209.25	1055.65
2210.58	1036.81
2211.9	1031.38
2213.23	1029.26
2214.55	1028.73
2215.88	1028.48
2217.2	1026.13
2218.52	1031.55
2219.84	1031.29
2221.17	1028.74
2222.49	1026.3
2223.81	1035.62
2225.13	1034.08
2226.45	1032.91
2227.77	1029.23
2229.09	1030.19
2230.41	1029.01
2231.73	1032.24
2233.05	1028.13
2234.37	1031.54
2235.68	1027.44
2237	1028.25
2238.32	1032.92
2239.64	1032.88
2240.95	1031.62
2242.27	1025.28
2243.58	1024.14
2244.9	1030.37
2246.21	1029.39
2247.53	1031.46
2248.84	1031.1
2250.15	1046.24
2251.47	1067.41
2252.78	1184.81
2254.09	1303.64
2255.4	1298.74
2256.71	1340.35
2258.02	1361.94
2259.33	1379.51
2260.65	1290.52
2261.96	1076.16
2263.26	1040.13
2264.57	1039.4
2265.88	1043.79
2267.19	1092.7
2268.5	1158.62
2269.8	1168.73
2271.11	1162.68
2272.42	1172.57
2273.72	1187.69
2275.03	1144.08
2276.33	1063.21
2277.64	1039.8
2278.94	1027.88
2280.25	1030
2281.55	1033.15
2282.86	1034.54
2284.16	1031.88
2285.46	1030.86
2286.76	1025.7
2288.06	1025.55
2289.37	1028.43
2290.67	1028.98
2291.97	1030.8
2293.27	1031.91
2294.57	1031.73
2295.87	1027.59
2297.17	1027.5
2298.46	1032.01
2299.76	1031.19
2301.06	1030.71
2302.36	1028.19
2303.66	1025.32
2304.95	1029.99
2306.25	1030.27
2307.54	1029.02
2308.84	1030.2
2310.13	1035.34
2311.43	1028.31
2312.72	1032.46
2314.02	1032.67
2315.31	1027.13
2316.6	1032.09
2317.9	1029.03
2319.19	1029.44
2320.48	1032.46
2321.77	1030.62
2323.06	1026.27
2324.35	1031.45
2325.64	1027.5
2326.93	1024.38
2328.22	1022.82
2329.51	1027.72
2330.8	1036.37
2332.09	1036.77
2333.38	1028.83
2334.66	1033.07
2335.95	1037.98
2337.24	1028.1
2338.52	1032.69
2339.81	1036.56
2341.1	1030.65
2342.38	1033.13
2343.67	1026.59
2344.95	1032.93
2346.23	1033.56
2347.52	1028.01
2348.8	1036.84
2350.08	1028.21
2351.37	1031.15
2352.65	1032
2353.93	1022.78
2355.21	1028.99
2356.49	1032.64
2357.77	1031.93
2359.05	1033.39
2360.33	1027.08
2361.61	1027.24
2362.89	1026.32
2364.17	1022.43
2365.45	1034.61
2366.73	1032.12
2368	1027.51
2369.28	1025.16
2370.56	1032.26
2371.83	1036.94
2373.11	1035.12
2374.38	1032.34
2375.66	1031.68
2376.93	1030.78
2378.21	1028.48
2379.48	1030
2380.76	1029.84
2382.03	1027.11
2383.3	1029.89
2384.57	1036
2385.85	1031.92
2387.12	1034.53
2388.39	1043.4
2389.66	1047.39
2390.93	1041.61
2392.2	1045.15
2393.47	1054.09
2394.74	1081.4
2396.01	1142.91
2397.28	1211.17
2398.54	1242.21
2399.81	1241.4
2401.08	1243.11
2402.35	1229.99
2403.61	1199.71
2404.88	1079.91
2406.15	1045.22
2407.41	1033.46
2408.68	1034.95
2409.94	1027.14
2411.2	1028.01
2412.47	1035.2
2413.73	1027.64
2415	1033.49
2416.26	1024.37
2417.52	1035.53
2418.78	1030.77
2420.04	1032.6
2421.31	1032.76
2422.57	1032.58
2423.83	1030.01
2425.09	1029.14
2426.35	1026.53
2427.61	1025.69
2428.87	1028.22
2430.12	1035.56
2431.38	1026.98
2432.64	1025.92
2433.9	1033.57
2435.15	1026.75
2436.41	1032.8
2437.67	1033.48
2438.92	1031.46
2440.18	1029.75
2441.43	1034.6
2442.69	1032.81
2443.94	1033.17
2445.2	1032.29
2446.45	1032.13
2447.7	1031.74
2448.96	1027.55
2450.21	1030.06
2451.46	1031.44
2452.71	1029.54
2453.96	1033.03
2455.22	1035.25
2456.47	1031.56
2457.72	1032.57
2458.97	1031.98
2460.22	1031.69
2461.46	1028.7
2462.71	1026.67
2463.96	1026.54
2465.21	1033.02
2466.46	1036.78
2467.7	1036
2468.95	1026.7
2470.2	1028.39
2471.44	1027.08
2472.69	1031.86
2473.93	1035.61
2475.18	1029.8
2476.42	1028
2477.67	1029.35
2478.91	1032.16
2480.16	1028.2
2481.4	1026.55
2482.64	1030.21
2483.88	1033.58
2485.13	1026.21
2486.37	1030.07
2487.61	1040.86
2488.85	1027.55
2490.09	1031.84
2491.33	1033.94
2492.57	1022.66
2493.81	1025.75
2495.05	1033.37
2496.29	1023.25
2497.53	1032.55
2498.76	1027.3
2500	1022.75
2501.24	1023.59
2502.47	1020.8
2503.71	1023.42
2504.95	1030.07
2506.18	1027.34
2507.42	1027.26
2508.65	1028
2509.89	1032.38
2511.12	1028.24
2512.35	1023.38
2513.59	1028.4
2514.82	1029.47
2516.05	1029.21
2517.29	1026.34
2518.52	1026.32
2519.75	1028.02
2520.98	1030.18
2522.21	1031.88
2523.44	1031.97
2524.67	1030
2525.9	1028.02
2526.56	1028.04
2527.81	1032.06
2529.06	1035.87
2530.31	1025.89
2531.56	1029.88
2532.81	1027.93
2534.06	1023.95
2535.31	1027.84
2536.56	1033.81
2537.81	1027.99
2539.06	1022.15
2540.3	1027.96
2541.55	1020.13
2542.8	1026.01
2544.04	1026
2545.29	1027.8
2546.54	1027.95
2547.78	1037.65
2549.03	1028.09
2550.27	1024.28
2551.52	1029.92
2552.76	1026.04
2554	1033.55
2555.25	1023.89
2556.49	1023.89
2557.73	1031.58
2558.97	1029.92
2560.22	1035.42
2561.46	1027.88
2562.7	1023.95
2563.94	1035.32
2565.18	1029.84
2566.42	1022.49
2567.66	1029.48
2568.9	1028.27
2570.14	1026.28
2571.38	1029.94
2572.61	1026.46
2573.85	1025.76
2575.09	1029.83
2576.33	1037.12
2577.56	1024.33
2578.8	1031.5
2580.03	1028.19
2581.27	1024.55
2582.51	1029.77
2583.74	1022.24
2584.98	1030.01
2586.21	1023.02
2587.44	1024.61
2588.68	1031.16
2589.91	1033.78
2591.14	1024.67
2592.37	1026.89
2593.61	1029.8
2594.84	1028.67
2596.07	1035.63
2597.3	1031.8
2598.53	1030.87
2599.76	1035.36
2600.99	1030.69
2602.22	1028.14
2603.45	1034.96
2604.68	1024.53
2605.91	1030.39
2607.13	1027.29
2608.36	1033.59
2609.59	1032.92
2610.81	1027.22
2612.04	1027.57
2613.27	1028.35
2614.49	1031.79
2615.72	1029.16
2616.94	1025.6
2618.17	1030.36
2619.39	1029.68
2620.62	1029.71
2621.84	1019.07
2623.06	1028.35
2624.29	1028.78
2625.51	1025.82
2626.73	1025.57
2627.95	1027.28
2629.17	1032.89
2630.4	1036.23
2631.62	1030.04
2632.84	1030.53
2634.06	1031.82
2635.28	1026.4
2636.5	1028.28
2637.71	1035.51
2638.93	1026.1
2640.15	1030.59
2641.37	1031.24
2642.59	1023
2643.8	1032.31
2645.02	1024.14
2646.24	1034.3
2647.45	1027.61
2648.67	1025.15
2649.88	1031.1
2651.1	1029.07
2652.31	1030.49
2653.53	1032.64
2654.74	1032.11
2655.96	1031.54
2657.17	1022.61
2658.38	1031.13
2659.59	1024.63
2660.81	1023.86
2662.02	1034.66
2663.23	1029.94
2664.44	1024.79
2665.65	1024.1
2666.86	1032.39
2668.07	1025.99
2669.28	1030.77
2670.49	1022.5
2671.7	1032.1
2672.91	1033.58
2674.12	1029.6
2675.32	1028.48
2676.53	1026.5
2677.74	1023.49
2678.94	1029.58
2680.15	1035.39
2681.36	1020.62
2682.56	1033.25
2683.77	1026.16
2684.97	1022.13
2686.18	1027.34
2687.38	1023.95
2688.59	1027.2
2689.79	1025.9
2690.99	1031.69
2692.2	1025.74
2693.4	1026.24
2694.6	1037.41
2695.8	1032
2697	1033.04
2698.21	1029.83
2699.41	1028.53
2700.61	1026
2701.81	1031.71
2703.01	1025.33
2704.21	1031.72
2705.41	1028.61
2706.6	1028.13
2707.8	1025.42
2709	1024.48
2710.2	1031.32
2711.4	1021.68
2712.59	1027.08
2713.79	1028.42
2714.98	1029.37
2716.18	1028.45
2717.38	1020.79
2718.57	1033.5
2719.77	1026.63
2720.96	1031.28
2722.15	1032.33
2723.35	1028.77
2724.54	1026.48
2725.74	1035.24
2726.93	1027.02
2728.12	1026.91
2729.31	1021.08
2730.5	1026.2
2731.7	1024.95
2732.89	1025.72
2734.08	1030.32
2735.27	1028.81
2736.46	1030.38
2737.65	1025.83
2738.84	1033.71
2740.02	1024.78
2741.21	1027.28
2742.4	1029.41
2743.59	1027.11
2744.78	1029.25
2745.96	1028.65
2747.15	1030.85
2748.34	1035.94
2749.52	1032.78
2750.71	1024.3
2751.89	1032.33
2753.08	1029.67
2754.26	1035.27
2755.45	1030.46
2756.63	1035.07
2757.82	1023.97
2759	1030.8
2760.18	1038.9
2761.37	1026.42
2762.55	1028.08
2763.73	1027.32
2764.91	1030.35
2766.09	1028.67
2767.27	1026.15
2768.45	1029.83
2769.63	1021.92
2770.81	1028.47
2771.99	1027.6
2773.17	1031.78
2774.35	1027.4
2775.53	1032.54
2776.71	1025.18
2777.89	1028.05
2779.06	1032.87
2780.24	1024.33
2781.42	1024.23
2782.59	1030.86
2783.77	1028.95
2784.95	1029.1
2786.12	1026.47
2787.3	1028.23
2788.47	1032.21
2789.65	1025.71
2790.82	1030.73
2791.99	1031.13
2793.17	1028.53
2794.34	1025.61
2795.51	1027.73
2796.68	1030.24
2797.86	1030.71
2799.03	1031.6
2800.2	1029.49
2801.37	1026.21
2802.54	1026.96
2803.71	1021.35
2804.88	1022.99
2806.05	1034.51
2807.22	1029.54
2808.39	1027.19
2809.56	1026.77
2810.73	1026.87
2811.89	1028.51
2813.06	1028.78
2814.23	1023.06
2815.4	1029.3
2816.56	1027.96
2817.73	1022.97
2818.89	1030.57
2820.06	1030.13
2821.22	1027.85
2822.39	1032.52
2823.55	1034.34
2824.72	1031.93
2825.88	1026.87
2827.05	1031.1
2828.21	1030.99
2829.37	1030.02
2830.53	1030.02
2831.7	1029.95
2832.86	1029.93
2834.02	1021.5
2835.18	1031.35
2836.34	1025.43
2837.5	1030.78
2838.66	1032.04
2839.82	1027.02
2840.98	1028.68
2842.14	1024.63
2843.3	1029.08
2844.46	1027.8
2845.62	1030.33
2846.77	1022.71
2847.93	1027.39
2849.09	1026.95
2850.24	1025.65
2851.4	1029.63
2852.56	1027.31
2853.71	1032.41
2854.87	1028.26
2856.02	1030.55
2857.18	1031.21
2858.33	1026.68
2859.49	1027.15
2860.64	1028.63
2861.79	1027.82
2862.95	1027.81
2864.1	1031.27
2865.25	1028.86
2866.4	1022.89
2867.55	1033.46
2868.71	1026.91
2869.86	1029.78
2871.01	1030.51
2872.16	1029.58
2873.31	1025.54
2874.46	1023.65
2875.61	1029.88
2876.76	1026.86
2877.91	1026
2879.05	1026.36
2880.2	1027.47
2881.35	1024.95
2882.5	1028.06
2883.64	1030.3
2884.79	1026.31
2885.94	1030.48
2887.08	1029.25
2888.23	1027.21
2889.37	1030.31
2890.52	1031.12
2891.66	1033.91
2892.81	1029.85
2893.95	1030.85
2895.1	1029.15
2896.24	1029.83
2897.38	1030.32
2898.52	1028.9
2899.67	1030.06
2900.81	1031.44
2901.95	1030.31
2903.09	1034.54
2904.23	1030.05
2905.37	1028.31
2906.51	1030.4
2907.65	1028.72
2908.79	1029.62
2909.93	1027.4
2911.07	1024.16
2912.21	1022.76
2913.35	1031.67
2914.49	1030.76
2915.63	1030
2916.76	1031.03
2917.9	1031.44
2919.04	1028.62
2920.17	1024.93
2921.31	1027.95
2922.45	1030.2
2923.58	1023.04
2924.72	1031.63
2925.85	1028.41
2926.99	1025.5
2928.12	1025.03
2929.25	1026.17
2930.39	1028.49
2931.52	1028.82
2932.65	1030.43
2933.79	1028.62
2934.92	1030.37
2936.05	1029.2
2937.18	1026.29
2938.31	1031.14
2939.44	1022.22
2940.57	1030.48
2941.7	1030.91
2942.83	1026.25
2943.96	1026.09
2945.09	1023.15
2946.22	1025.96
2947.35	1028.41
2948.48	1026.82
2949.61	1020.76
2950.73	1025.47
2951.86	1029.12
2952.99	1030
2954.11	1026.24
2955.24	1015.98
2956.37	1031.39
2957.49	1027.42
2958.62	1034.21
2959.74	1030.86
2960.87	1026.24
2961.99	1026.63
2963.12	1033.86
2964.24	1025.02
2965.36	1023.6
2966.49	1022.18
2967.61	1029.93
2968.73	1026.4
2969.85	1025.98
2970.97	1026.37
2972.1	1033.74
2973.22	1028.14
2974.34	1027.13
2975.46	1034.36
2976.58	1027.4
2977.7	1032.62
2978.82	1026.85
2979.94	1025.8
2981.06	1030.17
2982.17	1029.95
2983.29	1029.83
2984.41	1025.06
2985.53	1029.75
2986.64	1025.11
2987.76	1028.26
2988.88	1026.42
2989.99	1032.88
2991.11	1029.7
2992.23	1031.56
2993.34	1023.53
2994.46	1023.98
2995.57	1031.99
2996.69	1029.52
2997.8	1029.85
2998.91	1034.09
3000.03	1027.24
3001.14	1026.55
3002.25	1025.94
3003.36	1027.49
3004.48	1025.88
3005.59	1026.7
3006.7	1027.8
3007.81	1033
3008.92	1033.33
3010.03	1027.15
3011.14	1028.09
3012.25	1024.1
3013.36	1029.53
3014.47	1028.66
3015.58	1024.56
3016.69	1025.26
3017.8	1028.9
3018.9	1028.35
3020.01	1032.27
3021.12	1030.12
3022.23	1027.62
3023.33	1030.92
3024.44	1031.64
3025.55	1025.85
3026.65	1029.16
3027.76	1024.71
3028.86	1024.98
3029.97	1030.64
3031.07	1028.26
3032.18	1038.62
3033.28	1039.2
3034.38	1032.7
3035.49	1029.27
3036.59	1039.72
3037.69	1026.49
3038.79	1025.43
3039.89	1030.4
3041	1033.47
3042.1	1024.67
3043.2	1023.79
3044.3	1029.22
3045.4	1026.1
3046.5	1032.77
3047.6	1029.88
3048.7	1036.05
3049.8	1031.16
3050.9	1028.02
3051.99	1025.95
3053.09	1029.07
3054.19	1029.28
3055.29	1029.76
3056.38	1027.94
3057.48	1031.11
3058.58	1029.11
3059.67	1027.62
3060.77	1028.93
3061.87	1032.22
3062.96	1025.89
3064.06	1027.92
3065.15	1028.8
3066.25	1028.21
3067.34	1028.22
3068.43	1031.22
3069.53	1030.48
3070.62	1025.45
3071.71	1026.22
3072.8	1028
3073.9	1027.79
3074.99	1031.86
3076.08	1028.25
3077.17	1031.93
3078.26	1032.82
3079.35	1023.98
3080.44	1018.63
3081.53	1024.36
3082.62	1031.56
3083.71	1030.33
3084.8	1023.47
3085.89	1027.31
3086.98	1018.6
3088.06	1029.28
3089.15	1032
3090.24	1030.19
3091.33	1018.77
3092.41	1028.28
3093.5	1021.33
3094.59	1038.84
3095.67	1023.5
3096.76	1028.95
3097.84	1029.6
3098.93	1027.73
3100.01	1028
3101.1	1029.82
3102.18	1022.84
3103.27	1032.2
3104.35	1029.09
3105.43	1021.66
3106.51	1029.99
3107.6	1024.92
3108.68	1030.36
3109.76	1026.82
3110.84	1023.76
3111.92	1026.74
3113	1027.16
3114.09	1028.83
3115.17	1032.04
3116.24	1033.54
3117.32	1034.75
3118.4	1032.37
3119.48	1024.45
3120.56	1027.2
3121.64	1030.18
3122.72	1028.87
3123.24	1029.61
3124.34	1029.66
3125.44	1027.86
3126.53	1026.34
3127.63	1026.5
3128.73	1025.72
3129.82	1035.88
3130.92	1032.36
3132.02	1025.92
3133.11	1030.18
3134.21	1029.45
3135.3	1032.57
3136.39	1029.99
3137.49	1029.63
3138.58	1030.57
3139.68	1038.18
3140.77	1027.52
3141.86	1035.44
3142.96	1029.77
3144.05	1023.29
3145.14	1031.33
3146.23	1029.3
3147.32	1028
3148.41	1023.52
3149.5	1030.69
3150.59	1030.91
3151.69	1025.6
3152.78	1032.66
3153.86	1024.73
3154.95	1024.71
3156.04	1032.97
3157.13	1032.7
3158.22	1027.26
3159.31	1025.49
3160.4	1027.47
3161.48	1029.77
3162.57	1031.58
3163.66	1023.89
3164.74	1023.53
3165.83	1025.5
3166.92	1024.27
3168	1033.6
3169.09	1025.29
3170.17	1030
3171.25	1029.3
3172.34	1030.29
3173.42	1030.47
3174.51	1028.63
3175.59	1027.23
3176.67	1027.58
3177.76	1028.77
3178.84	1029.43
3179.92	1024.44
3181	1024.45
3182.08	1024.47
3183.17	1028.52
3184.25	1027
3185.33	1028
3186.41	1024.58
3187.49	1021.92
3188.57	1029.33
3189.65	1028.43
3190.73	1026.48
3191.81	1027.2
3192.89	1027.61
3193.96	1030
3195.04	1028.06
3196.12	1029.32
3197.2	1027.38
3198.27	1027.31
3199.35	1028
