120.387	25850.8
124.488	22357.5
128.587	19505.4
132.684	17215.1
136.778	15482.9
140.868	14050.8
144.956	13054
149.041	12282.1
153.124	11596.7
157.203	10987.5
161.281	10622.1
165.354	10288
169.426	9888.69
173.494	9550.89
177.56	9209.69
181.624	8881.29
185.685	8571.94
189.742	8374.66
193.797	8242.34
197.849	8158.88
201.899	8250.67
205.945	8532.3
209.989	8805.07
214.031	9114.01
218.07	9377.38
222.106	9401.36
226.139	9204.67
230.17	8650.37
234.198	7692.75
238.223	6663.61
242.245	5660.04
246.265	4790.39
250.282	4217.33
254.296	3864.01
258.308	3598.79
262.317	3479.39
266.323	3351.35
270.327	3258.79
274.328	3136.48
278.326	3021.93
282.322	2919.08
286.314	2822.37
290.305	2718.35
294.293	2604.04
298.277	2507.66
302.259	2463.1
306.24	2418.06
310.216	2380.2
314.191	2345.98
318.163	2345.01
322.131	2384.28
326.098	2401.51
330.061	2393.52
334.022	2394.69
337.981	2373.55
341.936	2381.51
345.889	2353.55
349.84	2302.52
353.788	2253.08
357.733	2256.97
361.676	2216.45
365.616	2237.57
369.554	2273.34
373.488	2286.83
377.42	2344.73
381.35	2405.5
385.277	2482.98
389.201	2560.82
393.123	2626.24
397.042	2702.88
400.959	2789.83
404.873	2904.18
408.784	2951.4
412.693	2889.53
416.599	2777.94
420.503	2621.26
424.403	2466.29
428.302	2377.22
432.198	2302.52
436.091	2243.87
439.982	2214.99
443.871	2185.06
447.755	2139.03
451.639	2048.5
455.519	1988.99
459.397	1925.34
463.273	1888.69
467.145	1845.68
471.015	1818.8
474.883	1803.67
478.748	1770.93
482.611	1780.17
486.471	1736.16
490.328	1723.89
494.184	1707.36
498.036	1721
501.886	1720
505.733	1710.36
509.578	1720.76
513.42	1748.02
517.26	1741.71
521.097	1800.22
524.932	1840.23
528.764	1911.68
532.594	1999.7
536.421	2068.93
540.246	2143.24
544.068	2160.32
547.888	2143.62
551.704	2110.38
555.52	2089.58
559.332	2061.93
563.142	2050.79
566.949	2012.79
570.754	2004.5
574.555	1967.93
578.355	1901.88
582.153	1901.7
585.947	1867.64
589.74	1849.52
593.53	1815.03
597.317	1800.03
601.102	1811.26
604.884	1828.12
608.663	1928.98
612.441	2360.22
616.217	3546.19
619.989	4720.8
623.759	4790.19
627.526	3723.39
631.292	2580.53
635.054	2070.74
638.815	1887.09
642.572	1811.32
646.328	1740.52
650.081	1673.91
653.831	1645.02
657.579	1622.77
661.325	1595.3
665.068	1591.33
668.809	1565.54
672.548	1566.8
676.283	1553.93
680.016	1575.44
683.748	1552.4
687.477	1555.3
691.203	1569.67
694.926	1607.64
698.648	1681.65
702.367	1731.64
706.083	1741.67
709.798	1708.67
713.51	1697.68
717.219	1670.17
720.926	1667.19
724.631	1675.01
728.332	1723.72
732.032	1846.2
735.729	2045.55
739.425	2254.02
743.117	2457.88
746.808	2620.23
750.496	2783.54
754.18	2960.21
757.864	3094.56
761.545	3116.42
765.223	3087.95
768.899	2982.67
772.572	2889.98
776.244	2880.83
779.912	3038.28
783.579	3347.52
787.244	3767.78
790.905	4235.55
794.565	4474.78
798.222	4351.28
801.877	3967.46
805.529	3472.02
809.179	3011.51
812.827	2635.11
816.472	2366.04
820.116	2166.41
823.756	2035.07
827.394	1989.03
831.03	2011.65
834.664	2087.24
838.296	2197.1
841.925	2243.26
845.551	2209.27
849.176	2142.01
852.798	2071.1
856.418	2025.28
860.035	2017.27
863.65	2014.02
867.263	1997.52
870.874	1991.47
874.482	1991.34
878.088	1978.05
881.692	1970.25
885.293	1959.15
888.892	1977.71
892.489	2019.36
896.083	2071.73
899.675	2170.58
903.265	2203.45
906.853	2225.89
910.438	2156.29
914.021	2010.87
917.602	1900.66
921.18	1794.59
924.756	1759.01
928.33	1727.73
931.901	1729.41
935.471	1759.44
939.038	1771.47
942.603	1780.46
946.166	1801.36
949.725	1810.83
953.284	1819.26
956.839	1854.73
960.393	1920.83
963.944	1974.26
967.493	2021.57
971.04	2069.09
974.585	2194.12
978.126	2523.83
981.667	3005.14
985.204	3649.11
988.74	4674.55
992.273	7544.11
995.804	13331
999.333	20032.2
1002.86	22560.6
1006.38	17926.8
1009.91	10216.1
1013.43	4942.69
1016.94	3349.24
1020.46	3452.6
1023.97	4580.77
1027.48	6226.05
1030.99	7520.93
1034.5	7494.45
1038	6031.66
1041.5	4423.96
1045	3332.73
1048.5	2819.64
1052	2581.77
1055.49	2511.13
1058.98	2511.52
1062.47	2553.48
1065.96	2664.91
1069.44	2709.48
1072.93	2703.44
1076.41	2653.97
1079.88	2605.45
1083.36	2565.87
1086.83	2541.35
1090.3	2553.67
1093.77	2534.14
1097.24	2483.9
1100.71	2371.82
1104.17	2277.35
1105.74	2212.56
1109.22	2056.78
1112.69	1915.44
1116.15	1810.95
1119.62	1728.06
1123.08	1644.5
1126.54	1587.73
1130	1590.48
1133.46	1606.61
1136.92	1657.27
1140.37	1820.61
1143.82	2069.88
1147.27	2527.41
1150.71	3174.13
1154.16	3691.27
1157.6	3825.12
1161.04	3549.72
1164.48	3141.94
1167.91	2944.63
1171.35	3115.3
1174.78	3623.9
1178.2	4355.11
1181.63	4989.65
1185.06	5188.67
1188.48	5106.89
1191.9	5055.33
1195.32	5155.05
1198.73	5228.1
1202.15	5107.68
1205.56	4699.13
1208.97	4102.07
1212.38	3551.68
1215.78	3109.6
1219.19	2840.53
1222.59	2667.29
1225.99	2538.33
1229.39	2430.16
1232.78	2355.88
1236.18	2229.45
1239.57	2132.39
1242.96	2058.61
1246.34	1999.61
1249.73	1959.85
1253.11	1933.17
1256.49	1880.39
1259.87	1859.55
1263.25	1832.7
1266.62	1795.55
1269.99	1798.07
1273.36	1790.44
1276.73	1794.63
1280.1	1797.99
1283.46	1802.48
1286.82	1834.35
1290.18	1883.74
1293.54	1935.71
1296.89	2020.61
1300.25	2074.35
1303.6	2121.97
1306.95	2170.27
1310.3	2231.4
1313.64	2301.9
1316.99	2381.45
1320.33	2512.7
1323.67	2599.46
1327	2629.63
1330.34	2627.62
1333.67	2552.38
1337	2418.4
1340.33	2304.47
1343.66	2184.07
1346.98	2074.35
1350.31	2018.21
1353.63	1988.54
1356.95	1975.53
1360.26	1944.5
1363.58	1954.08
1366.89	1962.98
1370.2	1932.68
1373.51	1897.55
1376.82	1831.7
1380.12	1769.62
1383.42	1676.98
1386.72	1616.25
1390.02	1562.34
1393.32	1532.42
1396.61	1498.98
1399.91	1517.36
1403.2	1533.63
1406.48	1565.43
1409.77	1544.8
1413.06	1532.8
1416.34	1513.02
1419.62	1500.83
1422.9	1513.93
1426.17	1519.86
1429.45	1600.41
1432.72	1695.18
1435.99	1868.11
1439.26	2075.96
1442.53	2340.41
1445.79	2600.38
1449.05	2738.34
1452.31	2734.64
1455.57	2526.62
1458.83	2190.41
1462.08	1854.46
1465.34	1670.61
1468.59	1529.95
1471.84	1456.7
1475.08	1423.71
1478.33	1420.12
1481.57	1404.09
1484.81	1412.8
1488.05	1431.8
1491.29	1456.28
1494.52	1468.55
1497.76	1454.38
1500.99	1418.83
1504.22	1399.3
1507.44	1382.06
1510.67	1378.09
1513.89	1390.17
1517.11	1378.79
1520.33	1381.11
1523.55	1373.41
1526.76	1368.32
1529.98	1371.17
1533.19	1375.9
1536.4	1363.31
1539.61	1378.36
1542.81	1392.15
1546.02	1390.09
1549.22	1396.2
1552.42	1393.42
1555.62	1417.79
1558.81	1422.71
1562.01	1448.32
1565.2	1512.01
1568.39	1549.22
1571.58	1656.46
1574.76	1886.7
1577.95	2274.16
1581.13	2873.01
1584.31	3158.79
1587.49	3119.5
1590.67	2958.4
1593.84	3167.48
1597.02	3914.69
1600.19	4899.67
1603.36	5504.2
1606.53	5259.76
1609.69	4320.43
1612.85	3338.45
1616.02	2605.27
1619.18	2117.54
1622.33	1881.49
1625.49	1789.65
1628.64	1801.27
1631.8	1781.93
1634.95	1697.47
1638.1	1594.17
1641.24	1495.19
1644.39	1432.63
1647.53	1382.11
1650.67	1362.1
1653.81	1340.89
1656.95	1327.62
1660.08	1327.38
1663.22	1330.6
1666.35	1323.47
1669.48	1314.97
1672.61	1336.23
1675.73	1319.82
1678.86	1314.33
1681.98	1318.5
1685.1	1319.47
1688.22	1310.44
1691.33	1295.66
1694.45	1297.15
1697.56	1296.47
1700.67	1283.63
1703.78	1272.03
1706.89	1277.79
1710	1272.05
1713.1	1266.31
1716.2	1251.36
1719.3	1253.07
1722.4	1255.16
1725.5	1255.87
1728.59	1265.22
1731.68	1256.43
1734.77	1251
1737.86	1248.22
1740.95	1255.4
1744.04	1263.64
1747.12	1251.38
1750.2	1245.62
1753.28	1245.15
1756.36	1236.37
1759.44	1240.49
1762.51	1239.94
1765.58	1230.96
1768.65	1225.29
1771.72	1226.8
1774.79	1228.93
1777.85	1224.96
1780.92	1231.13
1783.98	1235.64
1787.04	1229.19
1790.1	1232.69
1793.15	1236.08
1796.21	1231.53
1799.26	1232.05
1802.31	1233.19
1805.36	1226.62
1808.41	1234.96
1811.45	1249.74
1814.5	1274.79
1817.54	1326.25
1820.58	1375.68
1823.62	1346.58
1826.65	1282.71
1829.69	1247.75
1832.72	1229.86
1835.75	1223.19
1838.78	1220.44
1841.81	1212.3
1844.84	1212.18
1847.86	1204.57
1850.88	1197.67
1853.9	1203.38
1856.92	1207.47
1859.94	1200.59
1862.95	1205.17
1865.97	1207.38
1868.98	1205.88
1871.99	1207.73
1875	1201.92
1878	1194.73
1881.01	1194.53
1884.01	1193.66
1887.01	1199.06
1890.01	1195.73
1893.01	1193.31
1896	1197.31
1899	1201.64
1901.99	1199.91
1904.98	1194.54
1907.97	1193.35
1910.96	1202.53
1913.94	1198.41
1916.93	1190.31
1919.91	1201.44
1922.89	1204.21
1925.87	1205.09
1926.89	1209.99
1929.88	1206.9
1932.86	1201.1
1935.84	1201.46
1938.83	1198.14
1941.81	1192.55
1944.79	1177.97
1947.76	1190.69
1950.74	1186.91
1953.71	1185.96
1956.68	1190.58
1959.65	1188.73
1962.62	1180.68
1965.59	1176.67
1968.55	1174.28
1971.51	1176.76
1974.48	1173.56
1977.43	1168.54
1980.39	1168.39
1983.35	1164.12
1986.3	1164.48
1989.26	1162.59
1992.21	1166.31
1995.16	1158.84
1998.1	1159.44
2001.05	1162.45
2003.99	1157.02
2006.94	1155.22
2009.88	1149.78
2012.82	1149.74
2015.75	1152.91
2018.69	1151.28
2021.62	1152.33
2024.56	1146.65
2027.49	1143.71
2030.42	1150.08
2033.34	1150.9
2036.27	1146.46
2039.19	1147.94
2042.11	1144.13
2045.04	1144.98
2047.95	1142.4
2050.87	1147.46
2053.79	1143.01
2056.7	1142.73
2059.61	1144.55
2062.52	1143.79
2065.43	1144.29
2068.34	1143.49
2071.24	1145.08
2074.15	1137.16
2077.05	1137.01
2079.95	1144.24
2082.85	1142.92
2085.75	1137.51
2088.64	1135.03
2091.54	1135.88
2094.43	1137.61
2097.32	1135.35
2100.21	1134.16
2103.09	1133.43
2105.98	1135.18
2108.86	1136.54
2111.75	1133.29
2114.63	1136.92
2117.51	1130.63
2120.38	1132.5
2123.26	1129.83
2126.13	1137.26
2129	1129.64
2131.88	1122.16
2134.75	1127.24
2137.61	1126.33
2140.48	1128.02
2143.34	1129.72
2146.21	1120.99
2149.07	1126.25
2151.93	1130.22
2154.78	1129.18
2157.64	1129.58
2160.49	1126.7
2163.35	1130.16
2166.2	1129.8
2169.05	1126.74
2171.89	1126.94
2174.74	1120.61
2177.59	1119.97
2180.43	1118.39
2183.27	1125.55
2186.11	1118.4
2188.95	1122.05
2191.78	1123.99
2194.62	1114.35
2197.45	1128.4
2200.28	1119.57
2203.11	1131.92
2205.94	1135.68
2208.77	1127.47
2211.6	1119.25
2214.42	1105.47
2217.24	1110.34
2220.06	1109.27
2222.88	1114.08
2225.7	1112.3
2228.51	1112.14
2231.33	1112.09
2234.14	1107.14
2236.95	1110.83
2239.76	1120.02
2242.57	1110.57
2245.37	1105.9
2248.18	1113.43
2250.98	1109.66
2253.78	1111.05
2256.58	1115.16
2259.38	1110.17
2262.18	1108.53
2264.97	1108.49
2267.77	1109.13
2270.56	1102.18
2273.35	1108.44
2276.14	1101.57
2278.92	1107.74
2281.71	1107.23
2284.49	1106.8
2287.28	1105.34
2290.06	1110.33
2292.84	1111.53
2295.61	1103.13
2298.39	1103.06
2301.17	1109.47
2303.94	1107.12
2306.71	1114.16
2309.48	1113.94
2312.25	1106.72
2315.02	1115.84
2317.78	1118.59
2320.54	1114.05
2323.31	1112.04
2326.07	1111.93
2328.83	1114.13
2331.58	1109.76
2334.34	1114.77
2337.09	1101.75
2339.85	1106.76
2342.6	1106.5
2345.35	1108.15
2348.1	1104.09
2350.84	1110.44
2353.59	1107.11
2356.33	1107.64
2359.07	1112.2
2361.82	1118.78
2364.55	1102.75
2367.29	1099.94
2370.03	1092.67
2372.76	1103.39
2375.5	1109.24
2378.23	1104.79
2380.96	1109.98
2383.68	1109.61
2386.41	1109.1
2389.14	1108.66
2391.86	1099.54
2394.58	1101.48
2397.3	1093.46
2400.02	1103.25
2402.74	1100.39
2405.46	1097.5
2408.17	1103.58
2410.88	1101.64
2413.6	1107.87
2416.31	1102.63
2419.01	1094.89
2421.72	1098.76
2424.43	1098.99
2427.13	1099.19
2429.83	1100.36
2432.53	1100.22
2435.23	1104.57
2437.93	1108.34
2440.63	1108.25
2443.32	1104.92
2446.02	1104.76
2448.71	1101.58
2451.4	1103.42
2454.09	1108.46
2456.78	1106.09
2459.46	1105.38
2462.15	1099.91
2464.83	1100.95
2467.51	1099.7
2470.19	1101.85
2472.87	1104.86
2475.55	1098.19
2478.22	1100.92
2480.9	1101.18
2483.57	1103.26
2486.24	1105.65
2488.91	1096.92
2491.58	1099.55
2494.25	1098.67
2496.91	1102.03
2499.58	1096.22
2502.24	1091.91
2504.9	1090.13
2507.56	1096.31
2510.22	1089.81
2512.87	1089.16
2515.53	1088.26
2518.18	1096.38
2520.83	1092.09
2523.49	1091.47
2526.13	1095.99
2528.78	1091.11
2531.43	1091.98
2534.07	1090.82
2536.72	1091.95
2539.36	1101.96
2542	1126.1
2544.64	1155.72
2547.28	1156.71
2549.91	1137.61
2552.55	1104.06
2555.18	1096.21
2557.81	1100.71
2560.44	1100.45
2563.07	1099.54
2565.7	1104.26
2568.32	1106.59
2570.95	1100.15
2573.57	1100.84
2576.19	1102.57
2578.81	1103.12
2581.43	1100.22
2584.05	1099.41
2586.66	1097.27
2589.28	1098.75
2591.89	1097.85
2594.5	1104.85
2597.11	1105.88
2599.72	1104.23
2602.33	1105.8
2604.93	1104.87
2607.54	1104.65
2610.14	1108.64
2612.74	1102.71
2615.34	1102.96
2617.94	1104.28
2620.54	1098.97
2623.14	1104.4
2625.73	1103.48
2628.32	1103.92
2630.91	1097.86
2633.51	1099.51
2636.09	1091.2
2636.72	1093.2
2639.31	1086.99
2641.91	1089.61
2644.5	1091.8
2647.1	1090.15
2649.69	1094.46
2652.28	1091.79
2654.87	1092.27
2657.46	1088.57
2660.04	1084.64
2662.63	1088.28
2665.21	1084.31
2667.79	1085.63
2670.37	1084.94
2672.95	1090.16
2675.53	1083.84
2678.1	1082.1
2680.68	1080.18
2683.25	1079.38
2685.82	1084.07
2688.39	1082.1
2690.96	1084.98
2693.53	1081.41
2696.1	1078.45
2698.66	1075.37
2701.22	1075.3
2703.79	1079.43
2706.35	1082.78
2708.91	1069.76
2711.46	1072.62
2714.02	1073.83
2716.58	1070.05
2719.13	1080.54
2721.68	1076.21
2724.23	1071.32
2726.78	1079.15
2729.33	1077.37
2731.88	1079.22
2734.42	1070.64
2736.97	1073.69
2739.51	1070.18
2742.05	1069.86
2744.59	1073.99
2747.13	1073.03
2749.67	1065.64
2752.2	1068.76
2754.74	1064.33
2757.27	1068.03
2759.8	1063.42
2762.33	1070.68
2764.86	1068.21
2767.39	1065.26
2769.92	1070.21
2772.44	1065.97
2774.97	1062.4
2777.49	1067.67
2780.01	1072.38
2782.53	1077.91
2785.05	1073.13
2787.56	1071.28
2790.08	1065.29
2792.59	1061.25
2795.11	1067.18
2797.62	1060.18
2800.13	1067.89
2802.64	1068.75
2805.15	1062.18
2807.65	1062.79
2810.16	1067.74
2812.66	1064.67
2815.16	1066.88
2817.66	1068.76
2820.16	1069.04
2822.66	1066.14
2825.16	1068.16
2827.65	1068.4
2830.15	1073.57
2832.64	1073.43
2835.13	1088.62
2837.62	1111.9
2840.11	1123.09
2842.6	1150.36
2845.08	1181.57
2847.57	1210.34
2850.05	1249.23
2852.53	1267.88
2855.01	1274.07
2857.49	1253.07
2859.97	1260.24
2862.45	1244.78
2864.93	1209.48
2867.4	1196.59
2869.87	1198.08
2872.34	1185.92
2874.81	1195.18
2877.28	1188.54
2879.75	1212.21
2882.22	1224.39
2884.68	1236.93
2887.15	1250.7
2889.61	1292.48
2892.07	1328.08
2894.53	1344.1
2896.99	1374.64
2899.44	1398.66
2901.9	1420.75
2904.36	1422.88
2906.81	1426.46
2909.26	1423.82
2911.71	1419.44
2914.16	1407.43
2916.61	1390.58
2919.06	1384.11
2921.5	1342.81
2923.95	1336.46
2926.39	1322.03
2928.83	1293.88
2931.27	1278.49
2933.71	1251.54
2936.15	1243.22
2938.58	1227.63
2941.02	1197.64
2943.45	1194.35
2945.88	1175.4
2948.32	1151.29
2950.75	1140.03
2953.17	1122.63
2955.6	1123.99
2958.03	1114.78
2960.45	1109.36
2962.88	1106.56
2965.3	1111.13
2967.72	1104.77
2970.14	1116.99
2972.56	1121.59
2974.97	1123.91
2977.39	1131.32
2979.81	1128.18
2982.22	1137.1
2984.63	1132.26
2987.04	1111.51
2989.45	1097
2991.86	1096.16
2994.27	1099.51
2996.67	1103.58
2999.08	1113.95
3001.48	1124.2
3003.88	1140.51
3006.28	1135.65
3008.68	1128.06
3011.08	1117.54
3013.48	1117.48
3015.87	1118.28
3018.27	1117.21
3020.66	1125.88
3023.05	1143.26
3025.44	1161.31
3027.83	1185.99
3030.22	1220.56
3032.61	1244.87
3034.99	1271.87
3037.38	1297.53
3039.76	1322.44
3042.14	1352.92
3044.52	1391.12
3046.9	1422.05
3049.28	1467.16
3051.66	1529.3
3054.03	1601.41
3056.41	1620.31
3058.78	1601.07
3061.15	1576.92
3063.52	1537.11
3065.89	1493.46
3068.26	1430.19
3070.63	1369.76
3072.99	1307.41
3075.36	1255.5
3077.72	1203.14
3080.08	1176.9
3082.44	1144.68
3084.8	1131.3
3087.16	1118.13
3089.52	1113.26
3091.87	1094.13
3094.23	1086.69
3096.58	1077.52
3098.93	1075.4
3101.28	1068.46
3103.63	1071.62
3105.98	1065.74
3108.33	1065.7
3110.68	1065.73
3113.02	1062.24
3115.36	1052.86
3117.71	1052.45
3120.05	1052.06
3122.39	1054.56
3124.73	1051.54
3127.06	1043.89
3129.4	1046.76
3131.73	1039.57
3134.07	1038.68
3136.4	1040.42
3138.73	1042.42
3141.06	1043.07
3143.39	1043.86
3145.72	1042.54
3148.05	1041.25
3150.37	1038.92
3152.7	1041.48
3155.02	1041.21
3157.34	1044.55
3159.66	1043.64
3161.98	1041.59
3164.3	1047.57
3166.61	1048.27
3168.93	1050.97
3171.24	1049.54
3173.56	1065.02
3175.87	1079.79
3178.18	1081.37
3180.49	1061.94
3182.8	1045.66
3185.11	1037.89
3187.41	1037.66
3189.72	1041.08
3192.02	1040.07
3194.32	1039.8
3196.63	1041.4
3198.93	1039.14
3199.64	1041.16
