120.038	1466.26
122.004	1383.39
123.97	1340.18
125.936	1320.22
127.901	1304.51
129.865	1291.04
131.828	1278.58
133.791	1267.03
135.752	1256.08
137.714	1245.92
139.675	1235.54
141.635	1226.28
143.594	1217.81
145.553	1209.84
147.51	1202.24
149.467	1194.82
151.425	1187.51
153.38	1180.68
155.335	1174.43
157.289	1168.72
159.243	1163.4
161.195	1158.87
163.148	1154.37
165.099	1150.01
167.051	1145.49
169.001	1141.29
170.95	1135.87
172.899	1131.21
174.847	1128.25
176.795	1124.59
178.742	1120.97
180.687	1117.64
182.633	1114.62
184.577	1111.92
186.521	1109.49
188.464	1107.31
190.407	1105.29
192.35	1104.11
194.291	1102.51
196.23	1101.06
198.17	1099.81
200.11	1098.75
202.048	1097.51
203.986	1096.36
205.923	1094.97
207.859	1093.66
209.795	1092.26
211.73	1091.2
213.665	1089.69
215.598	1088.67
217.531	1087.73
219.463	1086.94
221.395	1086.33
223.326	1085.99
225.256	1085.15
227.186	1084.25
229.114	1083.34
231.042	1083.22
232.97	1083.15
234.897	1082.96
236.823	1082.77
238.749	1082.8
240.673	1082.83
242.597	1082.7
244.521	1082.13
246.443	1081.48
248.366	1080.73
250.287	1079.76
252.207	1078.92
254.127	1078.15
256.046	1077.43
257.965	1076.78
259.883	1076.12
261.8	1075.41
263.716	1074.66
265.633	1073.9
267.547	1073.1
269.463	1072.31
271.376	1071.39
273.289	1070.35
275.202	1069.64
277.113	1069.22
279.025	1068.92
280.935	1069.03
282.845	1069.46
284.754	1069.96
286.663	1070.44
288.57	1070.59
290.478	1070.23
292.384	1069.8
294.29	1069.42
296.195	1069.12
298.099	1068.93
300.003	1068.84
301.907	1068.33
303.808	1067.29
305.711	1066.08
307.612	1065.17
309.512	1064.52
311.412	1064.09
313.31	1064.08
315.21	1064.52
317.107	1064.75
319.004	1065.04
320.9	1065.21
322.796	1065.58
324.691	1065.45
326.585	1064.04
328.48	1062.41
330.372	1061.28
332.264	1060.57
334.156	1060.23
336.047	1060.07
337.937	1060.24
339.827	1060.71
341.717	1061.27
343.605	1061.75
345.492	1062.09
347.38	1062.31
349.266	1062.25
351.151	1062.1
353.037	1061.77
354.922	1061.17
356.805	1060.66
358.688	1060.12
360.57	1059.58
362.452	1059.07
364.334	1058.5
366.214	1057.49
368.094	1057.09
369.973	1056.88
371.851	1056.7
373.728	1056.66
375.606	1056.52
377.482	1056.43
379.358	1056.53
381.233	1056.87
383.108	1057.59
384.982	1058.76
386.855	1058.82
388.727	1058.69
390.599	1058.15
392.47	1057.61
394.34	1057.19
396.21	1056.8
398.08	1056.38
399.948	1056.02
401.817	1055.67
403.683	1055.55
405.551	1055.5
407.416	1055.47
409.281	1055.38
411.146	1055.37
413.01	1055.4
414.874	1055.65
416.736	1055.72
418.598	1056.04
420.459	1056.42
422.32	1056.4
424.18	1056.22
426.04	1056.05
427.898	1056.01
429.756	1055.98
431.614	1055.84
433.471	1055.7
435.327	1055.6
437.182	1055.58
439.038	1055.75
440.892	1056.03
442.745	1056.05
444.599	1055.9
446.451	1055.66
448.302	1055.42
450.153	1055.26
452.003	1054.96
453.853	1054.01
455.702	1052.95
457.551	1051.94
459.399	1051.03
461.245	1050.37
463.092	1050.09
464.938	1050.18
466.783	1050.48
468.627	1050.98
470.471	1051.64
472.314	1052.3
474.157	1052.4
475.999	1052.35
477.84	1052.3
479.681	1052.27
481.521	1052.26
483.36	1052.25
485.198	1052.25
487.037	1051.8
488.875	1051.46
490.712	1051.19
492.548	1051.2
494.383	1051.2
496.218	1051.54
498.052	1051.99
499.885	1052.77
501.719	1053.11
503.551	1052.51
505.383	1052
507.214	1051.56
509.044	1052.22
510.874	1053.26
512.703	1055.15
514.532	1056.6
516.359	1058.73
518.187	1061.76
520.013	1064.46
521.839	1065.63
523.665	1065.88
525.489	1065.12
527.313	1062.43
529.137	1060.13
530.959	1057.77
532.781	1055.46
534.603	1054.13
536.424	1053.01
538.244	1051.96
540.064	1051.2
541.882	1050.7
543.701	1050.4
545.518	1050.35
547.336	1050.44
549.152	1050.63
550.968	1050.92
552.783	1051.29
554.598	1051.54
556.411	1051.81
558.224	1052.16
560.038	1052.27
561.85	1052.32
563.661	1052.43
565.472	1052.41
567.281	1052.41
569.091	1052.5
570.9	1052.65
572.708	1052.92
574.516	1053.24
576.323	1053.42
578.129	1053.43
579.935	1053.34
581.74	1053.25
583.545	1053.18
585.349	1053.03
587.152	1052.89
588.954	1052.55
590.757	1051.96
592.558	1051.35
594.358	1050.99
596.159	1050.7
597.958	1050.51
599.757	1050.21
601.555	1049.66
603.352	1049.6
605.15	1049.67
606.946	1049.75
608.742	1049.99
610.537	1050.15
612.332	1050.4
614.125	1050.59
615.919	1051.07
617.711	1051.23
619.503	1051.44
621.295	1051.67
623.085	1052.02
624.876	1052.27
626.666	1052.18
628.454	1052.38
630.242	1052.39
632.03	1052.24
633.817	1052.17
635.603	1052.02
637.389	1051.88
639.175	1051.68
640.96	1051.47
642.743	1051.25
644.527	1051.03
646.309	1050.81
648.091	1050.65
649.873	1050.55
651.653	1050.39
653.434	1050.1
655.214	1049.99
656.993	1049.96
658.772	1049.95
660.549	1050.01
662.327	1049.9
664.103	1049.88
665.879	1050.4
667.654	1050.84
669.429	1050.63
671.203	1050.23
672.977	1049.83
674.75	1049.49
676.521	1048.69
678.294	1047.49
680.064	1048.27
681.835	1049.15
683.605	1049.42
685.374	1049.84
687.143	1050.26
688.911	1050.61
690.679	1050.95
692.445	1050.67
694.211	1049.98
695.977	1049.69
697.742	1049.68
699.506	1049.49
701.27	1048.7
703.033	1047.75
704.795	1047.05
706.557	1046.29
708.319	1045.71
710.08	1045.43
711.84	1045.49
713.6	1045.93
715.358	1046.72
717.116	1047.27
718.875	1047.38
720.632	1046.76
722.388	1046.18
724.144	1046.28
725.899	1046.06
727.654	1045.59
729.408	1045.26
731.162	1044.69
732.914	1044.68
734.666	1044.63
736.418	1044.52
738.169	1044.59
739.92	1044.89
741.67	1045.42
743.419	1046.1
745.167	1046.85
746.916	1047.75
748.663	1048.85
750.41	1049.7
752.157	1049.65
753.902	1049.13
755.647	1048.68
757.392	1048.3
759.135	1047.96
760.879	1047.71
762.622	1047.57
764.363	1047.47
766.104	1047.48
767.846	1047.48
769.586	1047.43
771.326	1047.41
773.065	1047.35
774.803	1047.32
776.541	1047.38
778.279	1047.57
780.015	1047.76
781.751	1048.22
783.487	1048.88
785.221	1049.59
786.956	1050.26
788.689	1050.86
790.423	1050.78
792.155	1050.1
793.888	1049.31
795.618	1048.58
797.35	1048.01
799.08	1047.6
800.809	1047.21
802.538	1047
804.266	1047.01
805.994	1047.03
807.721	1046.56
809.448	1046.04
811.174	1045.9
812.899	1045.94
814.624	1046.5
816.349	1047.73
818.072	1048.88
819.795	1049.84
821.518	1050.67
823.24	1050.94
824.961	1050.71
826.681	1050.28
828.402	1050.06
830.121	1049.95
831.841	1049.91
833.559	1049.95
835.276	1050.07
836.994	1050.38
838.71	1050.8
840.426	1051.31
842.142	1051.6
843.856	1051.21
845.571	1050.65
847.284	1050.18
848.997	1049.59
850.71	1049.46
852.422	1049.63
854.134	1049.89
855.845	1050.49
857.554	1051.03
859.264	1051.72
860.973	1052.29
862.681	1052.64
864.389	1052.45
866.097	1051.62
867.803	1050.83
869.509	1049.89
871.215	1049.3
872.919	1048.22
874.624	1048.58
876.328	1049.43
878.031	1049.45
879.734	1049.37
881.436	1049.35
883.137	1049.48
884.838	1049.9
886.538	1050.42
888.238	1050.93
889.937	1051.09
891.635	1050.19
893.334	1048.84
895.031	1047.76
896.728	1047.18
898.424	1047.47
900.12	1047.7
901.815	1047.73
903.51	1047.82
905.203	1048.2
906.896	1048.29
908.59	1048.14
910.281	1047.87
911.974	1047.93
913.664	1048.01
915.355	1048.11
917.045	1048.28
918.734	1048.53
920.423	1048.79
922.111	1049.06
923.799	1049.32
925.485	1049.12
927.172	1048.34
928.858	1047.83
930.543	1048.19
932.228	1048.56
933.912	1048.41
935.596	1048.74
937.279	1051.24
938.961	1057.26
940.643	1063.32
942.324	1067.26
944.005	1069.51
945.685	1069.61
947.365	1068.59
949.044	1066.12
950.723	1062.07
952.401	1054.41
954.077	1050.42
955.755	1047.58
957.43	1046.07
959.107	1045.39
960.781	1045.16
962.456	1044.83
964.13	1044.88
965.803	1045.04
967.476	1044.94
969.148	1045.12
970.82	1045.52
972.49	1046.13
974.162	1046.75
975.831	1047.22
977.501	1047.32
979.169	1047.23
980.838	1046.96
982.505	1046.55
984.172	1045.92
985.839	1045
987.505	1043.96
989.171	1042.98
990.835	1042.08
992.499	1041.44
994.163	1041.66
995.826	1042.21
997.489	1042.98
999.151	1044.01
1000.81	1045.05
1002.47	1045.97
1004.13	1046.87
1005.79	1047.63
1007.45	1048.27
1009.11	1048.75
1010.77	1049.1
1012.43	1049.12
1014.08	1049.11
1015.74	1048.94
1017.4	1048.43
1019.05	1047.73
1020.71	1046.92
1022.36	1046.06
1024.01	1045.19
1025.67	1044.92
1027.32	1045.45
1028.97	1045.83
1030.62	1045.57
1032.27	1044.94
1033.93	1044.38
1035.57	1043.87
1037.22	1043.51
1038.87	1043.29
1040.52	1043.31
1042.17	1043.65
1043.82	1044.26
1045.46	1045.06
1047.11	1046.05
1048.75	1047.2
1050.4	1048.18
1052.04	1048.45
1053.38	1048.6
1055.05	1048.66
1056.72	1048.68
1058.39	1048.55
1060.06	1048.4
1061.73	1047.76
1063.4	1046.97
1065.07	1046.16
1066.73	1045.36
1068.4	1044.49
1070.07	1043.82
1071.73	1043.31
1073.4	1043.22
1075.06	1042.85
1076.72	1042.88
1078.39	1043.06
1080.05	1043.18
1081.71	1043.36
1083.37	1043.63
1085.03	1043.85
1086.7	1044.41
1088.35	1044.96
1090.01	1044.94
1091.67	1044.92
1093.33	1044.83
1094.99	1044.7
1096.65	1044.61
1098.3	1044.41
1099.96	1044.16
1101.61	1044.08
1103.27	1043.95
1104.92	1043.83
1106.58	1043.7
1108.23	1043.58
1109.88	1043.49
1111.54	1043.48
1113.19	1043.46
1114.84	1043.4
1116.49	1043.41
1118.14	1043.42
1119.79	1041.84
1121.44	1041.21
1123.08	1041.35
1124.73	1041.65
1126.38	1042.07
1128.03	1042.31
1129.67	1042.03
1131.32	1041.61
1132.96	1041.26
1134.61	1040.95
1136.25	1040.77
1137.9	1040.77
1139.54	1040.74
1141.18	1040.69
1142.82	1040.82
1144.46	1040.97
1146.1	1040.99
1147.75	1040.86
1149.38	1040.83
1151.02	1041.04
1152.66	1041.24
1154.3	1041.41
1155.94	1041.65
1157.57	1041.9
1159.21	1042.12
1160.85	1042.34
1162.48	1042.53
1164.12	1042.7
1165.75	1042.82
1167.38	1042.51
1169.02	1042.35
1170.65	1041.99
1172.28	1041.52
1173.91	1040.94
1175.55	1040.32
1177.18	1039.78
1178.81	1039.45
1180.43	1039.3
1182.06	1039.17
1183.69	1039.15
1185.32	1039.59
1186.95	1040.07
1188.57	1040.4
1190.2	1040.84
1191.82	1041.01
1193.45	1041.27
1195.07	1042
1196.7	1042.75
1198.32	1043.39
1199.94	1043.91
1201.57	1044.22
1203.19	1044.42
1204.81	1044.52
1206.43	1044.51
1208.05	1044.43
1209.67	1044.26
1211.29	1043.88
1212.91	1043.54
1214.53	1043.07
1216.14	1042.71
1217.76	1042.86
1219.38	1042.38
1220.99	1041.78
1222.61	1041.12
1224.22	1040.5
1225.84	1040
1227.45	1039.53
1229.07	1039.18
1230.68	1038.89
1232.29	1038.73
1233.9	1038.65
1235.51	1038.63
1237.12	1038.67
1238.73	1038.83
1240.34	1039.06
1241.95	1039.38
1243.56	1039.77
1245.17	1040.29
1246.78	1040.23
1248.38	1040.1
1249.99	1040
1251.6	1040.09
1253.2	1040.27
1254.81	1040.69
1256.41	1041.49
1258.01	1042.42
1259.62	1043.08
1261.22	1043.09
1262.82	1042.7
1264.42	1042.43
1266.02	1042.25
1267.63	1042.27
1269.23	1042.43
1270.82	1042.53
1272.42	1042.39
1274.02	1042.29
1275.62	1042.18
1277.22	1042.12
1278.81	1042.07
1280.41	1042.05
1282.01	1042.08
1283.6	1042.05
1285.2	1042.09
1286.79	1042
1288.39	1041.55
1289.98	1041.07
1291.57	1040.83
1293.16	1040.75
1294.75	1040.57
1296.35	1040.39
1297.94	1040.05
1299.53	1039.91
1301.12	1040.22
1302.71	1040.61
1304.29	1040.9
1305.88	1041.04
1307.47	1040.92
1309.06	1041.04
1310.64	1040.94
1312.23	1040.86
1313.81	1041.11
1315.4	1041.53
1316.98	1042.11
1318.57	1042.7
1320.15	1043.11
1321.73	1043.39
1323.32	1043.2
1324.9	1042.88
1326.48	1042.25
1328.06	1041.83
1329.64	1041.6
1331.22	1041.57
1332.8	1041.59
1334.38	1041.55
1335.96	1041.42
1337.53	1041.27
1339.11	1041.11
1340.69	1041.02
1342.26	1041.05
1343.84	1041.3
1345.41	1041.61
1346.99	1041.99
1348.56	1042.23
1350.14	1042.53
1351.71	1042.86
1353.28	1042.98
1354.85	1042.95
1356.42	1042.77
1358	1042.69
1359.57	1042.88
1361.14	1042.97
1362.71	1042.63
1364.27	1042.33
1365.84	1042.01
1367.41	1041.72
1368.98	1041.51
1370.54	1041.36
1372.11	1041.34
1373.68	1041
1375.24	1041.38
1376.81	1042.53
1378.37	1043.19
1379.94	1043.9
1381.5	1044.43
1383.06	1044.55
1384.62	1044.66
1386.19	1044.86
1387.75	1044.84
1389.31	1044.64
1390.87	1044.24
1392.43	1043.65
1393.99	1042.81
1395.54	1041.68
1397.1	1040.71
1398.66	1039.98
1400.22	1039.51
1401.77	1039.19
1403.33	1039.01
1404.89	1038.92
1406.44	1038.96
1408	1039.17
1409.55	1039.51
1411.1	1039.59
1412.66	1039.74
1414.21	1039.94
1415.76	1040.14
1417.31	1040.3
1418.86	1040.38
1420.41	1039.91
1421.96	1039.78
1423.51	1039.74
1425.06	1039.55
1426.61	1039.43
1428.16	1039.53
1429.71	1039.68
1431.25	1039.7
1432.8	1039.7
1434.35	1039.76
1435.89	1039.89
1437.44	1040.06
1438.98	1040.26
1440.53	1040.42
1442.07	1040.61
1443.61	1040.58
1445.15	1040.34
1446.7	1040.07
1448.24	1039.78
1449.78	1039.42
1451.32	1039.04
1452.86	1038.6
1454.4	1038.29
1455.94	1038.09
1457.48	1038.36
1459.01	1038.65
1460.55	1038.93
1462.09	1039.36
1463.63	1039.85
1465.16	1040.24
1466.7	1040.39
1468.23	1040.37
1469.77	1040.16
1471.3	1039.83
1472.83	1039.44
1474.37	1039.09
1475.9	1038.87
1477.43	1039.14
1478.96	1039.43
1480.49	1039.7
1482.02	1039.44
1483.56	1039.14
1485.08	1038.85
1486.61	1038.57
1488.14	1038.33
1489.67	1038.18
1491.2	1038.34
1492.72	1038.59
1494.25	1038.71
1495.78	1038.86
1497.3	1039.02
1498.83	1039.22
1500.35	1039.38
1501.88	1039.57
1503.4	1039.66
1504.92	1039.83
1506.45	1040.03
1507.97	1039.97
1509.49	1039.73
1511.01	1039.49
1512.53	1039.32
1514.05	1039.14
1515.57	1039.03
1517.09	1039.02
1518.61	1039.03
1520.13	1039.24
1521.64	1039.49
1523.16	1039.71
1524.68	1039.8
1526.19	1039.86
1527.71	1039.71
1529.23	1039.65
1530.74	1039.82
1532.25	1039.8
1533.77	1039.82
1535.28	1039.83
1536.79	1039.89
1538.31	1039.98
1539.82	1040.03
1541.33	1040.08
1542.84	1040.06
1544.35	1040.11
1545.86	1040.15
1547.37	1040.2
1548.88	1040.34
1550.39	1040.44
1551.9	1040.59
1553.4	1040.87
1554.91	1041.22
1556.42	1041.54
1557.92	1041.6
1559.43	1041.65
1560.93	1041.74
1562.44	1041.79
1563.94	1041.67
1565.44	1041.29
1566.95	1040.8
1568.45	1040.32
1569.95	1039.85
1571.45	1039.42
1572.95	1039.12
1574.46	1038.97
1575.96	1038.92
1577.45	1038.97
1578.95	1039.1
1580.45	1038.61
1581.95	1037.85
1583.45	1037.64
1584.95	1037.56
1586.44	1037.7
1587.94	1038.49
1589.43	1039.61
1590.93	1040.03
1592.42	1039.86
1593.92	1039.56
1595.41	1039.18
1596.91	1038.86
1598.4	1038.71
1599.89	1038.69
1601.38	1038.72
1602.87	1038.8
1604.37	1038.89
1605.86	1039.01
1607.35	1039.12
1608.84	1039.26
1610.32	1039.38
1611.81	1039.48
1613.3	1039.46
1614.79	1039.07
1616.28	1038.22
1617.76	1037.15
1619.25	1035.15
1620.73	1034.63
1622.22	1034.38
1623.7	1034.37
1625.19	1034.63
1626.67	1035.1
1628.16	1035.79
1629.64	1036.66
1631.12	1037.48
1632.6	1037.9
1634.08	1038.31
1635.56	1038.62
1637.05	1038.87
1638.52	1039.27
1640	1038.69
1641.48	1038.62
1642.96	1038.13
1644.44	1037.72
1645.92	1037.4
1647.4	1037.15
1648.87	1036.98
1650.35	1036.91
1651.82	1036.91
1653.3	1036.91
1654.77	1037.11
1656.25	1037.44
1657.72	1037.8
1659.19	1038.21
1660.67	1038.65
1662.14	1039.05
1663.61	1039.25
1665.08	1039.35
1666.55	1039.33
1668.02	1039.33
1669.49	1039.28
1670.96	1039.14
1672.43	1038.9
1673.9	1038.68
1675.37	1038.46
1676.84	1038.26
1678.3	1038.11
1679.77	1037.99
1681.24	1037.87
1682.7	1037.77
1684.17	1037.73
1685.63	1037.71
1687.1	1037.74
1688.56	1037.8
1690.02	1037.91
1691.49	1038.03
1692.95	1038.16
1694.41	1038.27
1695.87	1038.37
1697.34	1037.68
1698.8	1037.39
1700.26	1037.14
1701.72	1037.09
1703.17	1037.25
1704.63	1037.44
1706.09	1037.71
1707.55	1037.82
1709.01	1037.89
1710.46	1037.98
1711.92	1037.79
1713.38	1037.55
1714.83	1037.53
1716.29	1037.71
1717.74	1037.93
1719.19	1037.89
1720.65	1037.81
1722.1	1037.73
1723.55	1037.59
1725.01	1037.33
1726.46	1036.84
1727.91	1036.34
1729.36	1035.96
1730.81	1035.68
1732.26	1035.43
1733.71	1035.32
1735.16	1035.23
1736.61	1035.28
1738.06	1035.43
1739.5	1035.68
1740.95	1036.15
1742.4	1037.28
1743.84	1039.06
1745.29	1041.19
1746.73	1043.44
1748.18	1045.57
1749.62	1047.47
1751.07	1049
1752.51	1048.64
1753.95	1046.66
1755.4	1044.44
1756.84	1042.43
1758.28	1040.65
1759.72	1039.21
1761.16	1038.12
1762.6	1037.41
1764.04	1036.93
1765.48	1036.34
1766.92	1035.4
1768.36	1034.3
1769.8	1033.34
1771.23	1032.51
1772.67	1032.01
1774.11	1031.99
1775.54	1032.29
1776.98	1032.82
1778.41	1033.33
1779.85	1033.89
1781.28	1034.42
1782.72	1034.97
1784.15	1035.49
1785.58	1035.97
1787.02	1036.37
1788.45	1036.52
1789.88	1036.63
1791.31	1036.81
1792.74	1037.05
1794.17	1037.07
1795.6	1037.08
1797.03	1037.07
1798.46	1037.09
1799.89	1036.78
1801.31	1036.66
1802.74	1036.68
1804.17	1036.72
1805.6	1036.71
1807.02	1036.44
1808.45	1036.43
1809.87	1036.28
1811.3	1036.08
1812.72	1035.79
1814.14	1035.5
1815.57	1035.05
1816.99	1034.5
1818.41	1033.96
1819.84	1033.4
1821.26	1032.74
1822.68	1032.2
1824.1	1031.77
1825.52	1031.41
1826.94	1031.44
1828.36	1031.55
1829.78	1031.94
1831.19	1032.19
1832.61	1031.98
1834.03	1031.82
1835.45	1032.01
1836.86	1032.38
1838.28	1032.96
1839.7	1033.76
1841.11	1034.66
1842.52	1035.53
1843.19	1035.93
1844.63	1035.95
1846.07	1035.71
1847.51	1035.1
1848.94	1034.32
1850.38	1033.47
1851.82	1032.94
1853.25	1032.82
1854.69	1032.91
1856.12	1033.09
1857.56	1033.34
1858.99	1033.73
1860.43	1034.14
1861.86	1034.61
1863.29	1035.1
1864.73	1035.59
1866.16	1035.94
1867.59	1036.42
1869.02	1036.8
1870.45	1036.86
1871.88	1036.38
1873.31	1035.91
1874.74	1035.44
1876.17	1035.01
1877.6	1034.59
1879.03	1034.17
1880.45	1034.08
1881.88	1034.07
1883.31	1034.05
1884.73	1034.08
1886.16	1034.12
1887.59	1034.17
1889.01	1034.19
1890.44	1034.21
1891.86	1033.84
1893.28	1033.55
1894.71	1033.34
1896.13	1033.32
1897.55	1033.22
1898.97	1033.58
1900.4	1034.04
1901.82	1034.29
1903.24	1034.32
1904.66	1034.38
1906.08	1034.46
1907.5	1034.55
1908.91	1034.62
1910.33	1034.65
1911.75	1034.63
1913.17	1034.6
1914.58	1034.53
1916	1033.99
1917.42	1033.46
1918.83	1032.97
1920.25	1032.64
1921.66	1032.27
1923.08	1032.09
1924.49	1031.95
1925.9	1031.73
1927.32	1031.9
1928.73	1032.11
1930.14	1032.39
1931.55	1032.66
1932.96	1033
1934.38	1033.36
1935.79	1033.7
1937.2	1034.06
1938.61	1034.26
1940.01	1034.38
1941.42	1034.4
1942.83	1034.25
1944.24	1034.01
1945.65	1033.61
1947.05	1033.21
1948.46	1032.79
1949.87	1032.38
1951.27	1031.97
1952.68	1031.51
1954.08	1031.08
1955.49	1031.09
1956.89	1031.12
1958.29	1031.28
1959.7	1031.49
1961.1	1031.84
1962.5	1032.14
1963.9	1032.38
1965.3	1032.6
1966.7	1032.77
1968.1	1032.87
1969.5	1033.03
1970.9	1033.41
1972.3	1033.33
1973.7	1033.01
1975.1	1032.55
1976.5	1032.24
1977.89	1032.67
1979.29	1033.01
1980.69	1033.01
1982.08	1032.9
1983.48	1032.71
1984.87	1032.57
1986.27	1032.46
1987.66	1032.49
1989.06	1032.56
1990.45	1032.53
1991.84	1032.55
1993.23	1032.67
1994.63	1032.86
1996.02	1033.02
1997.41	1033.18
1998.8	1032.93
2000.19	1032.65
2001.58	1032.45
2002.97	1032.43
2004.36	1032.49
2005.75	1032.69
2007.14	1032.91
2008.52	1033.19
2009.91	1033.5
2011.3	1033.77
2012.68	1033.97
2014.07	1034.06
2015.46	1033.82
2016.84	1033.48
2018.23	1033.22
2019.61	1032.91
2020.99	1032.18
2022.38	1031.32
2023.76	1029.66
2025.14	1029.9
2026.52	1030.48
2027.91	1031.12
2029.29	1031.61
2030.67	1031.93
2032.05	1032.21
2033.43	1032.82
2034.81	1033.94
2036.19	1034.51
2037.57	1034.18
2038.95	1033.08
2040.32	1032.54
2041.7	1032.7
2043.08	1032.93
2044.45	1033.18
2045.83	1033.35
2047.21	1033.2
2048.58	1033.26
2049.96	1034.01
2051.33	1034.36
2052.7	1034.7
2054.08	1035.08
2055.45	1035.43
2056.82	1035.74
2058.2	1036.05
2059.57	1036.37
2060.94	1036.53
2062.31	1036.24
2063.68	1035.6
2065.05	1035.04
2066.42	1034.43
2067.79	1034.43
2069.16	1034.61
2070.53	1034.85
2071.9	1035.23
2073.26	1035.27
2074.63	1035.43
2076	1035.52
2077.36	1035.65
2078.73	1035.72
2080.1	1035.79
2081.46	1035.6
2082.83	1035.01
2084.19	1034.41
2085.55	1033.81
2086.92	1033.79
2088.28	1033.81
2089.64	1033.86
2091.01	1034.05
2092.37	1034.26
2093.73	1034.47
2095.09	1034.71
2096.45	1034.77
2097.81	1034.68
2099.17	1034.51
2100.53	1034.34
2101.89	1034.04
2103.25	1033.71
2104.61	1033.4
2105.96	1033.22
2107.32	1033.13
2108.68	1033.32
2110.03	1033.61
2111.39	1033.97
2112.74	1034.41
2114.1	1034.73
2115.45	1034.84
2116.81	1034.88
2118.16	1034.83
2119.52	1034.46
2120.87	1034.48
2122.22	1034.76
2123.57	1035.04
2124.93	1035.25
2126.28	1035.41
2127.63	1035.51
2128.98	1035.58
2130.33	1035.59
2131.68	1035.54
2133.03	1035.47
2134.38	1035.38
2135.72	1035.28
2137.07	1035.18
2138.42	1035.07
2139.77	1034.95
2141.11	1034.8
2142.46	1034.68
2143.81	1034.57
2145.15	1034.36
2146.5	1033.97
2147.84	1033.58
2149.19	1033.33
2150.53	1033.42
2151.87	1033.46
2153.22	1033.53
2154.56	1033.62
2155.9	1033.72
2157.24	1033.78
2158.58	1034.05
2159.93	1034.3
2161.27	1034.53
2162.61	1034.72
2163.95	1034.82
2165.28	1034.84
2166.62	1034.57
2167.96	1034.36
2169.3	1034.16
2170.64	1033.88
2171.98	1033.62
2173.31	1033.09
2174.65	1032.77
2175.98	1032.48
2177.32	1032.42
2178.66	1032.24
2179.99	1032.88
2181.32	1033.56
2182.66	1033.52
2183.99	1033.45
2185.33	1033.66
2186.66	1033.89
2187.99	1034.12
2189.32	1034.27
2190.65	1032.1
2191.99	1030.9
2193.32	1031.64
2194.65	1033.57
2195.98	1035.64
2197.31	1035.49
2198.63	1035.71
2199.96	1034.93
2201.29	1034.32
2202.62	1033.73
2203.95	1033.52
2205.27	1033.44
2206.6	1033.31
2207.93	1033.44
2209.25	1033.59
2210.58	1033.88
2211.9	1034.32
2213.23	1034.33
2214.55	1034.25
2215.88	1034.25
2217.2	1034.15
2218.52	1034.15
2219.84	1034.11
2221.17	1033.78
2222.49	1033.44
2223.81	1033.15
2225.13	1032.89
2226.45	1032.45
2227.77	1032.04
2229.09	1031.67
2230.41	1031.41
2231.73	1031.26
2233.05	1031.59
2234.37	1032.04
2235.68	1032.57
2237	1033.25
2238.32	1033.89
2239.64	1034.47
2240.95	1035.01
2242.27	1035.41
2243.58	1035.35
2244.9	1035.35
2246.21	1035.24
2247.53	1034.68
2248.84	1034.27
2250.15	1034.08
2251.47	1033.76
2252.78	1033.28
2254.09	1032.63
2255.4	1032.26
2256.71	1032.41
2258.02	1032.8
2259.33	1033.47
2260.65	1034.25
2261.96	1034.42
2263.26	1034.65
2264.57	1034.94
2265.88	1034.88
2267.19	1035.74
2268.5	1036.11
2269.8	1036.11
2271.11	1036.01
2272.42	1035.93
2273.72	1035.99
2275.03	1036.16
2276.33	1036.03
2277.64	1035.51
2278.94	1034.94
2280.25	1034.49
2281.55	1034.1
2282.86	1033.77
2284.16	1033.49
2285.46	1033.24
2286.76	1033.09
2288.06	1033
2289.37	1032.96
2290.67	1033.04
2291.97	1033.15
2293.27	1033.34
2294.57	1033.5
2295.87	1033.56
2297.17	1033.74
2298.46	1034
2299.76	1034.21
2301.06	1034.38
2302.36	1034.28
2303.66	1033.91
2304.95	1033.48
2306.25	1033.73
2307.54	1034
2308.84	1034.29
2310.13	1034.52
2311.43	1034.53
2312.72	1034.45
2314.02	1034.41
2315.31	1034.35
2316.6	1034.33
2317.9	1034.42
2319.19	1034.49
2320.48	1034.58
2321.77	1034.68
2323.06	1034.9
2324.35	1035.26
2325.64	1035.55
2326.93	1035.81
2328.22	1036.03
2329.51	1036.14
2330.8	1036.16
2332.09	1036.04
2333.38	1035.86
2334.66	1035.6
2335.95	1035.31
2337.24	1035.02
2338.52	1034.79
2339.81	1034.56
2341.1	1034.73
2342.38	1034.88
2343.67	1035.09
2344.95	1035.08
2346.23	1035.06
2347.52	1035.09
2348.8	1035.4
2350.08	1035.67
2351.37	1035.96
2352.65	1036.11
2353.93	1036.19
2355.21	1036.11
2356.49	1035.86
2357.77	1035.58
2359.05	1035.34
2360.33	1035.11
2361.61	1034.99
2362.89	1034.88
2364.17	1034.43
2365.45	1033.93
2366.73	1034
2368	1034.37
2369.28	1034.86
2370.56	1035.53
2371.83	1036.24
2373.11	1036.86
2374.38	1037.31
2375.66	1037.55
2376.93	1037.6
2378.21	1037.41
2379.48	1037.02
2380.76	1036.69
2382.03	1036.43
2383.3	1036.18
2384.57	1035.93
2385.85	1035.64
2387.12	1035.48
2388.39	1035.43
2389.66	1035.42
2390.93	1035.55
2392.2	1035.79
2393.47	1036.2
2394.74	1036.71
2396.01	1037.21
2397.28	1037.67
2398.54	1038.07
2399.81	1038.42
2401.08	1038.67
2402.35	1038.74
2403.61	1038.77
2404.88	1038.68
2406.15	1038.38
2407.41	1038.1
2408.68	1037.8
2409.94	1037.48
2411.2	1037.21
2412.47	1036.93
2413.73	1036.8
2415	1036.69
2416.26	1036.69
2417.52	1036.69
2418.78	1036.77
2420.04	1036.95
2421.31	1037.38
2422.57	1037.09
2423.83	1036.58
2425.09	1036.21
2426.35	1036.04
2427.61	1035.54
2428.87	1034.82
2430.12	1033.6
2431.38	1033.33
2432.64	1033.31
2433.9	1033.55
2435.15	1034
2436.41	1034.63
2437.67	1035.56
2438.92	1036.75
2440.18	1037.99
2441.43	1038.87
2442.69	1039.12
2443.94	1039.07
2445.2	1038.97
2446.45	1038.86
2447.7	1038.82
2448.96	1038.73
2450.21	1038.63
2451.46	1038.54
2452.71	1038.38
2453.96	1038.25
2455.22	1038.03
2456.47	1037.47
2457.72	1036.75
2458.97	1036.13
2460.22	1035.63
2461.46	1035.25
2462.71	1035.1
2463.96	1035.11
2465.21	1035.18
2466.46	1035.3
2467.7	1035.48
2468.95	1035.51
2470.2	1035.63
2471.44	1035.69
2472.69	1035.59
2473.93	1035.7
2475.18	1035.85
2476.42	1035.36
2477.67	1034.75
2478.91	1034.2
2480.16	1033.57
2481.4	1033.16
2482.64	1032.97
2483.88	1032.7
2485.13	1032.81
2486.37	1033.01
2487.61	1033.26
2488.85	1033.58
2490.09	1033.87
2491.33	1034.16
2492.57	1034.45
2493.81	1034.69
2495.05	1034.95
2496.29	1034.96
2497.53	1035.05
2498.76	1035.07
2500	1035.07
2501.24	1035.02
2502.47	1034.89
2503.71	1034.57
2504.95	1034.1
2506.18	1033.66
2507.42	1033.23
2508.65	1032.82
2509.89	1032.46
2511.12	1032.13
2512.35	1031.88
2513.59	1031.98
2514.82	1032.24
2516.05	1032.54
2517.29	1033.03
2518.52	1033.64
2519.75	1034.48
2520.98	1035.46
2522.21	1036.65
2523.44	1037.57
2524.67	1037.9
2525.9	1037.76
2526.56	1037.58
2527.81	1037.2
2529.06	1036.74
2530.31	1036.25
2531.56	1035.72
2532.81	1035.22
2534.06	1035.01
2535.31	1035.21
2536.56	1035.26
2537.81	1035.29
2539.06	1035.28
2540.3	1035.18
2541.55	1035.09
2542.8	1034.92
2544.04	1034.76
2545.29	1034.51
2546.54	1034.25
2547.78	1033.95
2549.03	1033.59
2550.27	1033.29
2551.52	1033.11
2552.76	1033.13
2554	1033.59
2555.25	1034.46
2556.49	1035.31
2557.73	1036.22
2558.97	1036.69
2560.22	1036.58
2561.46	1036.48
2562.7	1036.37
2563.94	1036.18
2565.18	1036.01
2566.42	1035.7
2567.66	1035.29
2568.9	1034.86
2570.14	1034.46
2571.38	1033.99
2572.61	1033.75
2573.85	1034.34
2575.09	1034.63
2576.33	1034.64
2577.56	1034.48
2578.8	1034.37
2580.03	1034.29
2581.27	1033.89
2582.51	1033.56
2583.74	1033.68
2584.98	1033.59
2586.21	1033.52
2587.44	1033.52
2588.68	1033.56
2589.91	1033.56
2591.14	1033.65
2592.37	1033.69
2593.61	1033.66
2594.84	1033.59
2596.07	1033.54
2597.3	1033.48
2598.53	1033.35
2599.76	1033.21
2600.99	1033.08
2602.22	1033.07
2603.45	1033.09
2604.68	1033.17
2605.91	1033.27
2607.13	1033.47
2608.36	1033.67
2609.59	1034
2610.81	1034.27
2612.04	1034.63
2613.27	1034.95
2614.49	1035.36
2615.72	1035.61
2616.94	1035.34
2618.17	1034.97
2619.39	1034.7
2620.62	1034.44
2621.84	1034.32
2623.06	1034.16
2624.29	1035.42
2625.51	1035.48
2626.73	1035.05
2627.95	1034.71
2629.17	1034.64
2630.4	1034.76
2631.62	1035.07
2632.84	1033.76
2634.06	1032.38
2635.28	1032.81
2636.5	1033.07
2637.71	1033.4
2638.93	1033.71
2640.15	1033.74
2641.37	1033.87
2642.59	1034.05
2643.8	1034.24
2645.02	1034.37
2646.24	1034.48
2647.45	1034.47
2648.67	1034.4
2649.88	1034.29
2651.1	1034.07
2652.31	1033.94
2653.53	1033.92
2654.74	1033.85
2655.96	1033.86
2657.17	1033.85
2658.38	1033.92
2659.59	1034.03
2660.81	1034.32
2662.02	1034.79
2663.23	1035.5
2664.44	1036.08
2665.65	1035.91
2666.86	1035.66
2668.07	1035.46
2669.28	1035.28
2670.49	1035.19
2671.7	1035.01
2672.91	1034.84
2674.12	1034.76
2675.32	1034.82
2676.53	1034.48
2677.74	1034.26
2678.94	1034.37
2680.15	1035.03
2681.36	1035.73
2682.56	1036.45
2683.77	1037.19
2684.97	1037.79
2686.18	1038.28
2687.38	1038.66
2688.59	1038.93
2689.79	1039.12
2690.99	1039.22
2692.2	1039.17
2693.4	1038.87
2694.6	1038.51
2695.8	1037.98
2697	1037.34
2698.21	1036.14
2699.41	1035.18
2700.61	1034.59
2701.81	1034.41
2703.01	1034.81
2704.21	1035.17
2705.41	1035.73
2706.6	1036.27
2707.8	1036.63
2709	1036.7
2710.2	1036.84
2711.4	1037
2712.59	1037.12
2713.79	1037.22
2714.98	1037.26
2716.18	1037.29
2717.38	1037.32
2718.57	1037.17
2719.77	1037.06
2720.96	1037.33
2722.15	1037.48
2723.35	1037.03
2724.54	1036.95
2725.74	1036.87
2726.93	1036.91
2728.12	1037.1
2729.31	1037.31
2730.5	1037.58
2731.7	1036.95
2732.89	1036.54
2734.08	1036.44
2735.27	1036.76
2736.46	1036.46
2737.65	1036.17
2738.84	1035.93
2740.02	1035.72
2741.21	1035.57
2742.4	1035.44
2743.59	1035.23
2744.78	1034.75
2745.96	1034.81
2747.15	1035.12
2748.34	1035.31
2749.52	1035.27
2750.71	1035.35
2751.89	1035.45
2753.08	1035.59
2754.26	1035.69
2755.45	1035.81
2756.63	1035.89
2757.82	1035.92
2759	1035.94
2760.18	1036.08
2761.37	1036.99
2762.55	1036.98
2763.73	1036.6
2764.91	1036.26
2766.09	1035.94
2767.27	1035.79
2768.45	1035.96
2769.63	1036.26
2770.81	1036.57
2771.99	1036.87
2773.17	1037.45
2774.35	1036.46
2775.53	1037.63
2776.71	1038.52
2777.89	1038.4
2779.06	1038.27
2780.24	1038
2781.42	1037.56
2782.59	1037.12
2783.77	1036.69
2784.95	1036.22
2786.12	1035.71
2787.3	1035.37
2788.47	1035.16
2789.65	1035.08
2790.82	1035.1
2791.99	1034.88
2793.17	1034.7
2794.34	1035.31
2795.51	1035.38
2796.68	1035.53
2797.86	1035.6
2799.03	1035.47
2800.2	1035.2
2801.37	1034.92
2802.54	1034.7
2803.71	1034.47
2804.88	1034.44
2806.05	1034.52
2807.22	1034.81
2808.39	1035.1
2809.56	1035.34
2810.73	1035.5
2811.89	1035.59
2813.06	1035.61
2814.23	1035.29
2815.4	1035.41
2816.56	1035.59
2817.73	1035.81
2818.89	1036.04
2820.06	1036.3
2821.22	1036.59
2822.39	1037.02
2823.55	1037.51
2824.72	1038.15
2825.88	1038.89
2827.05	1039.6
2828.21	1040.1
2829.37	1040.32
2830.53	1040.13
2831.7	1040.15
2832.86	1039.55
2834.02	1035.62
2835.18	1035.17
2836.34	1033.98
2837.5	1033.1
2838.66	1035.7
2839.82	1038.16
2840.98	1038.37
2842.14	1038.28
2843.3	1038.37
2844.46	1038.54
2845.62	1038.01
2846.77	1038.53
2847.93	1039.45
2849.09	1039.23
2850.24	1039.04
2851.4	1038.86
2852.56	1038.05
2853.71	1037.51
2854.87	1037.36
2856.02	1037.35
2857.18	1037.49
2858.33	1037.73
2859.49	1038.03
2860.64	1038.37
2861.79	1038.6
2862.95	1038.76
2864.1	1038.9
2865.25	1039.06
2866.4	1039.18
2867.55	1039.32
2868.71	1039.4
2869.86	1039.44
2871.01	1039.39
2872.16	1038.89
2873.31	1038.28
2874.46	1037.8
2875.61	1037.45
2876.76	1037.14
2877.91	1037.1
2879.05	1037.25
2880.2	1038.3
2881.35	1039.23
2882.5	1039.96
2883.64	1039.76
2884.79	1039.26
2885.94	1038.7
2887.08	1038.08
2888.23	1037.57
2889.37	1037.07
2890.52	1036.77
2891.66	1037.12
2892.81	1036.84
2893.95	1036.61
2895.1	1036.45
2896.24	1036.41
2897.38	1036.54
2898.52	1036.84
2899.67	1037.31
2900.81	1037.84
2901.95	1038.26
2903.09	1038.59
2904.23	1038.45
2905.37	1038.02
2906.51	1037.4
2907.65	1036.7
2908.79	1035.96
2909.93	1035.2
2911.07	1034.54
2912.21	1033.97
2913.35	1033.7
2914.49	1033.41
2915.63	1033.41
2916.76	1033.73
2917.9	1034.13
2919.04	1034.58
2920.17	1035.05
2921.31	1035.57
2922.45	1035.99
2923.58	1036.24
2924.72	1036.15
2925.85	1035.97
2926.99	1035.82
2928.12	1035.75
2929.25	1035.76
2930.39	1035.82
2931.52	1035.79
2932.65	1035.61
2933.79	1035.54
2934.92	1035.34
2936.05	1035.23
2937.18	1035.37
2938.31	1035.63
2939.44	1035.68
2940.57	1035.75
2941.7	1036.01
2942.83	1036.2
2943.96	1035.93
2945.09	1035.68
2946.22	1035.51
2947.35	1035.35
2948.48	1035.23
2949.61	1035.09
2950.73	1034.88
2951.86	1034.88
2952.99	1035
2954.11	1035.21
2955.24	1035.46
2956.37	1035.74
2957.49	1035.93
2958.62	1036.22
2959.74	1036.42
2960.87	1036.27
2961.99	1036.15
2963.12	1036.15
2964.24	1036.21
2965.36	1036.31
2966.49	1036.46
2967.61	1036.59
2968.73	1036.9
2969.85	1037.13
2970.97	1037.23
2972.1	1037.35
2973.22	1037.51
2974.34	1037.67
2975.46	1037.81
2976.58	1037.89
2977.7	1037.77
2978.82	1037.73
2979.94	1037.36
2981.06	1036.74
2982.17	1036.1
2983.29	1035.55
2984.41	1035.16
2985.53	1035.1
2986.64	1035.19
2987.76	1035.34
2988.88	1035.37
2989.99	1035.54
2991.11	1035.82
2992.23	1036.25
2993.34	1036.74
2994.46	1037.17
2995.57	1037.47
2996.69	1037.46
2997.8	1037.71
2998.91	1037.98
3000.03	1038.12
3001.14	1038.08
3002.25	1037.9
3003.36	1037.65
3004.48	1037.41
3005.59	1037.23
3006.7	1037.18
3007.81	1037.15
3008.92	1037.09
3010.03	1037.02
3011.14	1036.89
3012.25	1036.67
3013.36	1036.57
3014.47	1036.67
3015.58	1036.66
3016.69	1036.53
3017.8	1036.34
3018.9	1036.19
3020.01	1036.21
3021.12	1036.48
3022.23	1036.85
3023.33	1037.3
3024.44	1037.78
3025.55	1038.27
3026.65	1038.6
3027.76	1038.89
3028.86	1039.05
3029.97	1039.19
3031.07	1039.12
3032.18	1038.81
3033.28	1038.3
3034.38	1037.64
3035.49	1036.88
3036.59	1036.34
3037.69	1035.92
3038.79	1035.77
3039.89	1035.72
3041	1035.69
3042.1	1035.67
3043.2	1035.64
3044.3	1035.56
3045.4	1035.46
3046.5	1035.4
3047.6	1035.64
3048.7	1035.89
3049.8	1035.98
3050.9	1035.97
3051.99	1035.5
3053.09	1035.37
3054.19	1035.72
3055.29	1035.95
3056.38	1036.01
3057.48	1036.02
3058.58	1036.08
3059.67	1036.01
3060.77	1035.93
3061.87	1035.85
3062.96	1035.77
3064.06	1035.69
3065.15	1035.48
3066.25	1035.03
3067.34	1034.19
3068.43	1033.39
3069.53	1033.54
3070.62	1034.45
3071.71	1034.55
3072.8	1034.46
3073.9	1034.32
3074.99	1034.15
3076.08	1034.01
3077.17	1033.88
3078.26	1033.8
3079.35	1033.76
3080.44	1033.82
3081.53	1033.93
3082.62	1034.1
3083.71	1034.35
3084.8	1034.77
3085.89	1035.07
3086.98	1035.39
3088.06	1035.77
3089.15	1036.13
3090.24	1036.45
3091.33	1036.73
3092.41	1037.1
3093.5	1038.35
3094.59	1038.11
3095.67	1037.49
3096.76	1037.02
3097.84	1036.85
3098.93	1036.89
3100.01	1037.06
3101.1	1037.33
3102.18	1037.25
3103.27	1036.96
3104.35	1036.68
3105.43	1036.59
3106.51	1036.63
3107.6	1036.82
3108.68	1036.89
3109.76	1036.42
3110.84	1036
3111.92	1035.74
3113	1035.68
3114.09	1035.8
3115.17	1036.09
3116.24	1036.62
3117.32	1037.41
3118.4	1038
3119.48	1038.3
3120.56	1038.51
3121.64	1038.7
3122.72	1038.87
3123.24	1038.97
3124.34	1039.06
3125.44	1039.11
3126.53	1039.12
3127.63	1039.08
3128.73	1038.49
3129.82	1037.9
3130.92	1037.34
3132.02	1036.79
3133.11	1036.43
3134.21	1036.09
3135.3	1036.17
3136.39	1036.34
3137.49	1036.49
3138.58	1036.8
3139.68	1036.87
3140.77	1036.94
3141.86	1037.28
3142.96	1037.61
3144.05	1037.93
3145.14	1038.27
3146.23	1038.52
3147.32	1038.63
3148.41	1038.73
3149.5	1038.91
3150.59	1039.14
3151.69	1039.39
3152.78	1039.54
3153.86	1039.57
3154.95	1039.18
3156.04	1038.61
3157.13	1038.27
3158.22	1037.93
3159.31	1037.4
3160.4	1036.73
3161.48	1036.15
3162.57	1035.6
3163.66	1035.3
3164.74	1035.06
3165.83	1034.73
3166.92	1034.57
3168	1034.6
3169.09	1034.86
3170.17	1035.2
3171.25	1035.61
3172.34	1036.12
3173.42	1036.22
3174.51	1036.14
3175.59	1036.08
3176.67	1036.12
3177.76	1036.17
3178.84	1036.01
3179.92	1035.88
3181	1035.76
3182.08	1035.68
3183.17	1035.61
3184.25	1035.47
3185.33	1035.39
3186.41	1035.2
3187.49	1034.71
3188.57	1034.22
3189.65	1033.75
3190.73	1033.29
3191.81	1033.02
3192.89	1032.88
3193.96	1033.37
3195.04	1034.09
3196.12	1034.94
3197.2	1035.63
3198.27	1036.46
3199.35	1037.16
