120.038	1224.64
122.004	1196.61
123.97	1180.49
125.936	1172.77
127.901	1166.47
129.865	1161.28
131.828	1156.13
133.791	1149.47
135.752	1142.84
137.714	1136.09
139.675	1130.34
141.635	1125.77
143.594	1121.34
145.553	1117.09
147.51	1113.36
149.467	1109.9
151.425	1106.1
153.38	1102.73
155.335	1099.8
157.289	1099.51
159.243	1097.88
161.195	1096.16
163.148	1094.52
165.099	1092.57
167.051	1090.38
169.001	1087.7
170.95	1085.92
172.899	1083.48
174.847	1081.34
176.795	1079.43
178.742	1077.89
180.687	1076.63
182.633	1075.46
184.577	1074.41
186.521	1073.53
188.464	1072.31
190.407	1071.32
192.35	1070.48
194.291	1069.92
196.23	1069.54
198.17	1069.09
200.11	1068.5
202.048	1067.93
203.986	1067.53
205.923	1067.09
207.859	1066.47
209.795	1066.62
211.73	1066.18
213.665	1066.11
215.598	1065.77
217.531	1067.09
219.463	1067.08
221.395	1066.53
223.326	1065.82
225.256	1065.06
227.186	1064.13
229.114	1063.36
231.042	1062.63
232.97	1061.92
234.897	1061.2
236.823	1060.71
238.749	1060.52
240.673	1060.5
242.597	1060.57
244.521	1060.32
246.443	1060.29
248.366	1060.21
250.287	1060.16
252.207	1060.1
254.127	1060.17
256.046	1059.93
257.965	1059.72
259.883	1059.38
261.8	1058.74
263.716	1058.14
265.633	1057.79
267.547	1057.65
269.463	1057.64
271.376	1057.82
273.289	1058.04
275.202	1058.31
277.113	1058.6
279.025	1058.99
280.935	1059.27
282.845	1059.06
284.754	1059.01
286.663	1059.15
288.57	1059.34
290.478	1059.27
292.384	1059
294.29	1058.86
296.195	1058.57
298.099	1058.23
300.003	1057.68
301.907	1057.44
303.808	1057.49
305.711	1057.55
307.612	1057.5
309.512	1057.48
311.412	1057.58
313.31	1057.87
315.21	1058.2
317.107	1058.27
319.004	1058.08
320.9	1057.81
322.796	1057.48
324.691	1057.08
326.585	1056.47
328.48	1055.75
330.372	1055.04
332.264	1054.32
334.156	1053.71
336.047	1053.01
337.937	1051.69
339.827	1050.51
341.717	1050.68
343.605	1051.27
345.492	1051.78
347.38	1052.2
349.266	1052.59
351.151	1052.88
353.037	1053.03
354.922	1053.12
356.805	1053.21
358.688	1053.28
360.57	1053.35
362.452	1053.13
364.334	1052.81
366.214	1052.66
368.094	1052.58
369.973	1052.51
371.851	1052.3
373.728	1052.11
375.606	1051.93
377.482	1051.86
379.358	1051.88
381.233	1052
383.108	1052.16
384.982	1052.26
386.855	1052.15
388.727	1051.89
390.599	1051.38
392.47	1050.81
394.34	1050.38
396.21	1050.08
398.08	1049.95
399.948	1049.95
401.817	1050.32
403.683	1050.62
405.551	1050.86
407.416	1051.04
409.281	1051.33
411.146	1051.69
413.01	1051.97
414.874	1052.2
416.736	1052.3
418.598	1052.24
420.459	1052.03
422.32	1051.83
424.18	1051.39
426.04	1050.88
427.898	1050.32
429.756	1049.74
431.614	1049.15
433.471	1048.77
435.327	1048.41
437.182	1048.13
439.038	1047.93
440.892	1047.78
442.745	1047.58
444.599	1047.47
446.451	1047.72
448.302	1048.13
450.153	1048.72
452.003	1049.45
453.853	1049.91
455.702	1049.88
457.551	1049.61
459.399	1049
461.245	1048.58
463.092	1048.12
464.938	1047.65
466.783	1047.29
468.627	1046.98
470.471	1046.79
472.314	1046.13
474.157	1045.72
475.999	1045.49
477.84	1045.6
479.681	1045.88
481.521	1046.28
483.36	1046.59
485.198	1046.89
487.037	1047.19
488.875	1047.76
490.712	1047.94
492.548	1048.64
494.383	1048.59
496.218	1047.82
498.052	1047.63
499.885	1048.15
501.719	1049
503.551	1048.6
505.383	1048.16
507.214	1048.79
509.044	1050.18
510.874	1052.46
512.703	1055.41
514.532	1060.06
516.359	1066.13
518.187	1074.37
520.013	1085.84
521.839	1094.08
523.665	1099.67
525.489	1097.19
527.313	1082.33
529.137	1065.26
530.959	1053.29
532.781	1049.25
534.603	1047.83
536.424	1048.41
538.244	1048.72
540.064	1048.23
541.882	1047.92
543.701	1046.2
545.518	1045.1
547.336	1044.32
549.152	1044.23
550.968	1044.29
552.783	1044.09
554.598	1043.87
556.411	1043.62
558.224	1043.44
560.038	1043.32
561.85	1043.28
563.661	1043.3
565.472	1043.38
567.281	1043.42
569.091	1043.71
570.9	1044.15
572.708	1044.64
574.516	1045.17
576.323	1045.67
578.129	1046.06
579.935	1046.16
581.74	1046
583.545	1045.77
585.349	1045.56
587.152	1045.44
588.954	1045.28
590.757	1045.33
592.558	1045.51
594.358	1045.7
596.159	1045.86
597.958	1045.91
599.757	1045.98
601.555	1045.86
603.352	1045.64
605.15	1045.74
606.946	1046.08
608.742	1046.49
610.537	1046.84
612.332	1046.81
614.125	1046.36
615.919	1045.23
617.711	1044.18
619.503	1043.01
621.295	1042.05
623.085	1042.42
624.876	1044.83
626.666	1043.17
628.454	1043.31
630.242	1043.75
632.03	1044.12
633.817	1044.72
635.603	1045.49
637.389	1046.53
639.175	1047.15
640.96	1047.66
642.743	1048.14
644.527	1048.32
646.309	1048.1
648.091	1047.62
649.873	1046.84
651.653	1045.85
653.434	1044.61
655.214	1043.76
656.993	1042.99
658.772	1042.37
660.549	1041.89
662.327	1041.68
664.103	1041.91
665.879	1042.31
667.654	1042.47
669.429	1042.17
671.203	1041.94
672.977	1042.12
674.75	1042.65
676.521	1043.39
678.294	1044.13
680.064	1044.45
681.835	1044.62
683.605	1044.83
685.374	1045.04
687.143	1045.43
688.911	1045.67
690.679	1045.55
692.445	1045.34
694.211	1045.07
695.977	1044.6
697.742	1043.85
699.506	1043.06
701.27	1042.36
703.033	1042.01
704.795	1042.29
706.557	1042.47
708.319	1042.85
710.08	1043.33
711.84	1043.99
713.6	1044.78
715.358	1045.67
717.116	1046.25
718.875	1046.51
720.632	1046.5
722.388	1046.24
724.144	1045.63
725.899	1045
727.654	1044.47
729.408	1043.98
731.162	1043.77
732.914	1043.3
734.666	1042.89
736.418	1042.65
738.169	1042.7
739.92	1042.73
741.67	1042.96
743.419	1043.31
745.167	1043.72
746.916	1044.07
748.663	1044.21
750.41	1044.25
752.157	1044.27
753.902	1044.21
755.647	1044.19
757.392	1044.21
759.135	1044.19
760.879	1044.29
762.622	1044.26
764.363	1044.24
766.104	1044.26
767.846	1044.34
769.586	1044.4
771.326	1044.47
773.065	1044.52
774.803	1044.58
776.541	1044.56
778.279	1044.53
780.015	1044.44
781.751	1044.44
783.487	1044.47
785.221	1044.52
786.956	1044.4
788.689	1044.51
790.423	1044.59
792.155	1044.81
793.888	1044.81
795.618	1044.7
797.35	1044.57
799.08	1044.43
800.809	1044.06
802.538	1043.63
804.266	1043.29
805.994	1042.95
807.721	1042.61
809.448	1042.29
811.174	1041.98
812.899	1041.71
814.624	1041.49
816.349	1041.3
818.072	1041.19
819.795	1041.2
821.518	1041.23
823.24	1041.3
824.961	1041.43
826.681	1041.54
828.402	1041.56
830.121	1041.58
831.841	1041.5
833.559	1041.65
835.276	1041.99
836.994	1042.24
838.71	1042.53
840.426	1042.86
842.142	1043.23
843.856	1043.69
845.571	1044.25
847.284	1044.72
848.997	1045.26
850.71	1045.87
852.422	1046.46
854.134	1046.75
855.845	1046.83
857.554	1047.05
859.264	1047.22
860.973	1047.35
862.681	1047.71
864.389	1047.09
866.097	1045.26
867.803	1043.94
869.509	1042.74
871.215	1041.31
872.919	1041.06
874.624	1041.2
876.328	1041.88
878.031	1043.16
879.734	1044.3
881.436	1044.76
883.137	1044.83
884.838	1044.85
886.538	1045.02
888.238	1045.36
889.937	1045.78
891.635	1046.02
893.334	1045.96
895.031	1045.78
896.728	1045.39
898.424	1044.94
900.12	1044.45
901.815	1044.02
903.51	1043.55
905.203	1043.15
906.896	1043.43
908.59	1044.13
910.281	1044.63
911.974	1044.87
913.664	1045.06
915.355	1045.06
917.045	1044.96
918.734	1044.72
920.423	1044.18
922.111	1043.56
923.799	1043.31
925.485	1043.6
927.172	1043.71
928.858	1043.68
930.543	1043.9
932.228	1044.33
933.912	1045.16
935.596	1046.38
937.279	1047.86
938.961	1050.03
940.643	1050.79
942.324	1051.35
944.005	1051.41
945.685	1051.35
947.365	1051.04
949.044	1050.35
950.723	1047.88
952.401	1041.59
954.077	1040.71
955.755	1042.23
957.43	1044.5
959.107	1045.55
960.781	1046.31
962.456	1046.24
964.13	1046.08
965.803	1045.85
967.476	1045.34
969.148	1042.99
970.82	1042.06
972.49	1042.04
974.162	1041.81
975.831	1042.08
977.501	1042.12
979.169	1043.62
980.838	1043.57
982.505	1043.07
984.172	1042.45
985.839	1041.74
987.505	1041.01
989.171	1040.28
990.835	1039.54
992.499	1038.8
994.163	1038.18
995.826	1037.53
997.489	1037.03
999.151	1036.77
1000.81	1036.49
1002.47	1036.5
1004.13	1036.88
1005.79	1037.47
1007.45	1038.22
1009.11	1039.17
1010.77	1040.17
1012.43	1041.07
1014.08	1041.77
1015.74	1042.29
1017.4	1042.64
1019.05	1042.4
1020.71	1041.75
1022.36	1041.12
1024.01	1040.4
1025.67	1039.85
1027.32	1039.81
1028.97	1040.07
1030.62	1040.43
1032.27	1040.8
1033.93	1041.13
1035.57	1041.39
1037.22	1041.62
1038.87	1041.83
1040.52	1042
1042.17	1042.12
1043.82	1042.22
1045.46	1042.24
1047.11	1042.03
1048.75	1041.82
1050.4	1041.52
1052.04	1041.2
1053.38	1040.9
1055.05	1040.57
1056.72	1040.34
1058.39	1040.1
1060.06	1039.9
1061.73	1039.83
1063.4	1039.62
1065.07	1039.39
1066.73	1039.26
1068.4	1039.04
1070.07	1038.78
1071.73	1038.57
1073.4	1038.37
1075.06	1038.16
1076.72	1038.02
1078.39	1037.91
1080.05	1037.88
1081.71	1037.93
1083.37	1038.06
1085.03	1038.28
1086.7	1038.48
1088.35	1038.75
1090.01	1038.9
1091.67	1039.01
1093.33	1039.12
1094.99	1039.24
1096.65	1039.38
1098.3	1039.42
1099.96	1039.4
1101.61	1039.29
1103.27	1039.07
1104.92	1038.92
1106.58	1038.77
1108.23	1038.44
1109.88	1037.1
1111.54	1035.19
1113.19	1033.89
1114.84	1033.63
1116.49	1034.17
1118.14	1035.25
1119.79	1035.73
1121.44	1035.99
1123.08	1036.14
1124.73	1036.29
1126.38	1036.4
1128.03	1036.52
1129.67	1036.69
1131.32	1036.83
1132.96	1036.96
1134.61	1036.97
1136.25	1037
1137.9	1036.85
1139.54	1036.47
1141.18	1036.14
1142.82	1035.91
1144.46	1036.05
1146.1	1036.53
1147.75	1037.09
1149.38	1037.69
1151.02	1038.16
1152.66	1038.52
1154.3	1038.86
1155.94	1039.23
1157.57	1038.72
1159.21	1038.27
1160.85	1037.78
1162.48	1037.31
1164.12	1036.82
1165.75	1036.22
1167.38	1034.34
1169.02	1033.93
1170.65	1034.07
1172.28	1034.33
1173.91	1034.93
1175.55	1035.45
1177.18	1035.06
1178.81	1034.84
1180.43	1035.41
1182.06	1036.45
1183.69	1038.23
1185.32	1039.12
1186.95	1039.19
1188.57	1038.59
1190.2	1037.97
1191.82	1037.37
1193.45	1036.99
1195.07	1036.76
1196.7	1036.5
1198.32	1035.89
1199.94	1035.56
1201.57	1035.56
1203.19	1036.05
1204.81	1036.49
1206.43	1036.88
1208.05	1037.23
1209.67	1037.53
1211.29	1037.78
1212.91	1038.01
1214.53	1038.28
1216.14	1038.39
1217.76	1038.42
1219.38	1038.09
1220.99	1037.86
1222.61	1037.52
1224.22	1037.2
1225.84	1036.88
1227.45	1036.59
1229.07	1036.33
1230.68	1035.98
1232.29	1035.53
1233.9	1035.32
1235.51	1035.67
1237.12	1035.9
1238.73	1036.23
1240.34	1036.6
1241.95	1036.93
1243.56	1037.25
1245.17	1037.54
1246.78	1037.79
1248.38	1037.95
1249.99	1038.1
1251.6	1038
1253.2	1037.58
1254.81	1037.45
1256.41	1037.6
1258.01	1037.74
1259.62	1037.75
1261.22	1037.6
1262.82	1037.5
1264.42	1037.43
1266.02	1037.28
1267.63	1037.05
1269.23	1036.66
1270.82	1036.28
1272.42	1035.98
1274.02	1035.77
1275.62	1035.69
1277.22	1035.77
1278.81	1035.99
1280.41	1035.97
1282.01	1035.91
1283.6	1035.92
1285.2	1036.07
1286.79	1036.37
1288.39	1036.8
1289.98	1037.28
1291.57	1037.93
1293.16	1038.42
1294.75	1038.79
1296.35	1038.88
1297.94	1039.02
1299.53	1039.1
1301.12	1039.13
1302.71	1039.13
1304.29	1039.06
1305.88	1038.57
1307.47	1037.93
1309.06	1037.24
1310.64	1036.67
1312.23	1036.26
1313.81	1036
1315.4	1035.98
1316.98	1036.15
1318.57	1036.47
1320.15	1036.75
1321.73	1037.16
1323.32	1037.44
1324.9	1037.71
1326.48	1038.04
1328.06	1037.77
1329.64	1037.83
1331.22	1037.92
1332.8	1038.01
1334.38	1038.03
1335.96	1038.13
1337.53	1038.26
1339.11	1037.96
1340.69	1037.43
1342.26	1036.9
1343.84	1036.59
1345.41	1036.51
1346.99	1036.5
1348.56	1036.69
1350.14	1036.83
1351.71	1036.99
1353.28	1037.28
1354.85	1037.5
1356.42	1037.76
1358	1038.08
1359.57	1038.23
1361.14	1038.31
1362.71	1038.34
1364.27	1038.29
1365.84	1038.22
1367.41	1038.18
1368.98	1038.15
1370.54	1038.14
1372.11	1038.16
1373.68	1038.22
1375.24	1038.44
1376.81	1038.72
1378.37	1038.96
1379.94	1039.02
1381.5	1039.02
1383.06	1039.04
1384.62	1039.09
1386.19	1039.33
1387.75	1039.63
1389.31	1039.58
1390.87	1039.3
1392.43	1038.92
1393.99	1038.7
1395.54	1038.52
1397.1	1038.34
1398.66	1038.4
1400.22	1038.39
1401.77	1038.4
1403.33	1038.3
1404.89	1038.19
1406.44	1038.23
1408	1038.34
1409.55	1038.59
1411.1	1038.88
1412.66	1038.75
1414.21	1038.82
1415.76	1038.9
1417.31	1038.77
1418.86	1038.47
1420.41	1038.14
1421.96	1037.84
1423.51	1037.66
1425.06	1037.69
1426.61	1037.81
1428.16	1037.77
1429.71	1037.77
1431.25	1037.8
1432.8	1037.83
1434.35	1037.92
1435.89	1038.02
1437.44	1038.13
1438.98	1038.29
1440.53	1038.45
1442.07	1038.59
1443.61	1038.74
1445.15	1037.32
1446.7	1037.98
1448.24	1038.52
1449.78	1038.99
1451.32	1039.18
1452.86	1039.12
1454.4	1038.99
1455.94	1038.81
1457.48	1038.6
1459.01	1038.27
1460.55	1037.9
1462.09	1037.54
1463.63	1037.26
1465.16	1037.13
1466.7	1037.08
1468.23	1037.07
1469.77	1036.98
1471.3	1036.92
1472.83	1036.77
1474.37	1036.47
1475.9	1036.16
1477.43	1035.94
1478.96	1035.94
1480.49	1036.1
1482.02	1036.41
1483.56	1036.67
1485.08	1036.99
1486.61	1037.47
1488.14	1037.92
1489.67	1038.28
1491.2	1038.57
1492.72	1038.74
1494.25	1038.99
1495.78	1039.05
1497.3	1039.19
1498.83	1039.23
1500.35	1038.7
1501.88	1037.98
1503.4	1037.39
1504.92	1037.08
1506.45	1036.95
1507.97	1037.06
1509.49	1037.32
1511.01	1037.69
1512.53	1038.04
1514.05	1038.34
1515.57	1038.5
1517.09	1038.75
1518.61	1039.06
1520.13	1039.44
1521.64	1039.97
1523.16	1040.24
1524.68	1039.63
1526.19	1039
1527.71	1038.74
1529.23	1038.55
1530.74	1038.52
1532.25	1038.71
1533.77	1038.65
1535.28	1038.55
1536.79	1038.31
1538.31	1038.35
1539.82	1038.46
1541.33	1037.15
1542.84	1037.9
1544.35	1037.22
1545.86	1036.78
1547.37	1038.32
1548.88	1038.46
1550.39	1038.62
1551.9	1039.53
1553.4	1039.63
1554.91	1040
1556.42	1039.84
1557.92	1039.54
1559.43	1039.31
1560.93	1039.14
1562.44	1038.96
1563.94	1038.4
1565.44	1037.73
1566.95	1037.37
1568.45	1037.3
1569.95	1037.27
1571.45	1037.18
1572.95	1037.15
1574.46	1037.01
1575.96	1037
1577.45	1037
1578.95	1037.13
1580.45	1037.34
1581.95	1037.53
1583.45	1037.37
1584.95	1036.66
1586.44	1035.95
1587.94	1035.53
1589.43	1035.39
1590.93	1035.36
1592.42	1035.55
1593.92	1036.02
1595.41	1036.63
1596.91	1037.07
1598.4	1037.36
1599.89	1037.52
1601.38	1037.56
1602.87	1037.41
1604.37	1037.36
1605.86	1037.41
1607.35	1037.7
1608.84	1038.17
1610.32	1038.7
1611.81	1039.28
1613.3	1039.61
1614.79	1039.66
1616.28	1039.54
1617.76	1039.61
1619.25	1039.74
1620.73	1039.62
1622.22	1039.6
1623.7	1039.36
1625.19	1038.9
1626.67	1038.61
1628.16	1037.67
1629.64	1037.45
1631.12	1037.02
1632.6	1036.71
1634.08	1036.88
1635.56	1036.97
1637.05	1037.29
1638.52	1037.67
1640	1038.12
1641.48	1038.45
1642.96	1038.39
1644.44	1038.1
1645.92	1037.75
1647.4	1037.26
1648.87	1036.72
1650.35	1036.19
1651.82	1035.7
1653.3	1035.63
1654.77	1035.74
1656.25	1036
1657.72	1036.31
1659.19	1036.66
1660.67	1036.98
1662.14	1037.05
1663.61	1036.88
1665.08	1036.63
1666.55	1036.52
1668.02	1036.41
1669.49	1036.25
1670.96	1036.06
1672.43	1035.74
1673.9	1035.47
1675.37	1035.3
1676.84	1035.18
1678.3	1035.42
1679.77	1035.85
1681.24	1036.44
1682.7	1037.21
1684.17	1037.93
1685.63	1038.62
1687.1	1038.84
1688.56	1038.62
1690.02	1038.34
1691.49	1038.03
1692.95	1037.72
1694.41	1037.39
1695.87	1037.08
1697.34	1036.78
1698.8	1036.52
1700.26	1036.27
1701.72	1035.96
1703.17	1035.21
1704.63	1034.43
1706.09	1034.05
1707.55	1033.8
1709.01	1033.85
1710.46	1034.01
1711.92	1034.37
1713.38	1034.64
1714.83	1035.02
1716.29	1035.49
1717.74	1035.33
1719.19	1035.47
1720.65	1035.65
1722.1	1035.97
1723.55	1036.3
1725.01	1036.35
1726.46	1036.27
1727.91	1036.4
1729.36	1036.75
1730.81	1037.04
1732.26	1037.42
1733.71	1038.03
1735.16	1038.53
1736.61	1038.81
1738.06	1039.29
1739.5	1039.67
1740.95	1039.68
1742.4	1039.55
1743.84	1039.39
1745.29	1039.19
1746.73	1038.96
1748.18	1038.7
1749.62	1038.39
1751.07	1038.09
1752.51	1037.78
1753.95	1037.6
1755.4	1037.05
1756.84	1035.77
1758.28	1034.59
1759.72	1033.95
1761.16	1033.79
1762.6	1033.92
1764.04	1034.12
1765.48	1034.44
1766.92	1034.64
1768.36	1034.65
1769.8	1034.71
1771.23	1034.84
1772.67	1034.92
1774.11	1034.84
1775.54	1034.64
1776.98	1034.22
1778.41	1033.7
1779.85	1033.15
1781.28	1032.75
1782.72	1032.88
1784.15	1032.96
1785.58	1032.96
1787.02	1033.19
1788.45	1033.56
1789.88	1034.25
1791.31	1034.96
1792.74	1035.34
1794.17	1035.72
1795.6	1035.8
1797.03	1035.62
1798.46	1035.78
1799.89	1035.94
1801.31	1035.85
1802.74	1035.28
1804.17	1034.68
1805.6	1033.99
1807.02	1033.84
1808.45	1033.59
1809.87	1033.55
1811.3	1033.16
1812.72	1032.54
1814.14	1032.29
1815.57	1032.24
1816.99	1032.38
1818.41	1032.71
1819.84	1033.15
1821.26	1033.57
1822.68	1033.97
1824.1	1034.37
1825.52	1034.79
1826.94	1035.48
1828.36	1035.64
1829.78	1035.53
1831.19	1035.16
1832.61	1034.71
1834.03	1034.48
1835.45	1034.48
1836.86	1034.6
1838.28	1034.75
1839.7	1034.73
1841.11	1034.85
1842.52	1034.99
1843.19	1034.99
1844.63	1034.75
1846.07	1034.57
1847.51	1034.86
1848.94	1035.06
1850.38	1035.24
1851.82	1035.65
1853.25	1036.16
1854.69	1036.39
1856.12	1036.52
1857.56	1036.69
1858.99	1036.72
1860.43	1036.67
1861.86	1036.79
1863.29	1036.67
1864.73	1036.57
1866.16	1036.34
1867.59	1036.36
1869.02	1036.38
1870.45	1036.41
1871.88	1036.51
1873.31	1036.57
1874.74	1036.69
1876.17	1036.73
1877.6	1036.8
1879.03	1036.83
1880.45	1035.94
1881.88	1033.38
1883.31	1029.25
1884.73	1028.42
1886.16	1031.39
1887.59	1032.39
1889.01	1033.46
1890.44	1034.26
1891.86	1033.6
1893.28	1033.26
1894.71	1032.86
1896.13	1032.21
1897.55	1031.71
1898.97	1031.14
1900.4	1030.81
1901.82	1030.82
1903.24	1030.53
1904.66	1030.53
1906.08	1030.59
1907.5	1030.71
1908.91	1030.73
1910.33	1031.28
1911.75	1032.21
1913.17	1033.08
1914.58	1033.74
1916	1034.07
1917.42	1034.44
1918.83	1034.5
1920.25	1034.67
1921.66	1034.59
1923.08	1034.47
1924.49	1034.16
1925.9	1033.88
1927.32	1033.5
1928.73	1033.4
1930.14	1033.14
1931.55	1032.54
1932.96	1032.14
1934.38	1031.76
1935.79	1031.26
1937.2	1030.88
1938.61	1030.99
1940.01	1031.21
1941.42	1031.52
1942.83	1031.97
1944.24	1032.2
1945.65	1032.2
1947.05	1032.07
1948.46	1032.01
1949.87	1031.94
1951.27	1031.95
1952.68	1031.99
1954.08	1032.08
1955.49	1032.19
1956.89	1032.2
1958.29	1032.06
1959.7	1031.95
1961.1	1031.83
1962.5	1031.74
1963.9	1031.65
1965.3	1031.54
1966.7	1031.29
1968.1	1031.31
1969.5	1031.81
1970.9	1032.74
1972.3	1033.5
1973.7	1033.98
1975.1	1034.36
1976.5	1034.94
1977.89	1034.71
1979.29	1034.5
1980.69	1034.42
1982.08	1034.69
1983.48	1034.92
1984.87	1034.88
1986.27	1034.87
1987.66	1035.01
1989.06	1035.07
1990.45	1035.12
1991.84	1035.18
1993.23	1034.72
1994.63	1033.88
1996.02	1033.19
1997.41	1032.85
1998.8	1032.75
2000.19	1032.66
2001.58	1032.71
2002.97	1033.18
2004.36	1033.55
2005.75	1033.81
2007.14	1033.97
2008.52	1033.69
2009.91	1033.32
2011.3	1033.16
2012.68	1032.96
2014.07	1032.58
2015.46	1032.31
2016.84	1032.04
2018.23	1031.75
2019.61	1031.62
2020.99	1031.45
2022.38	1031.48
2023.76	1031.62
2025.14	1031.87
2026.52	1032.16
2027.91	1032.31
2029.29	1032.4
2030.67	1032.51
2032.05	1032.52
2033.43	1032.44
2034.81	1032.03
2036.19	1031.69
2037.57	1031.34
2038.95	1031.16
2040.32	1031.15
2041.7	1031.47
2043.08	1032.19
2044.45	1032.98
2045.83	1033.65
2047.21	1034.15
2048.58	1034.3
2049.96	1034.1
2051.33	1033.92
2052.7	1033.58
2054.08	1033.41
2055.45	1033.33
2056.82	1032.91
2058.2	1032.52
2059.57	1032.4
2060.94	1032.24
2062.31	1031.93
2063.68	1031.35
2065.05	1031.15
2066.42	1030.98
2067.79	1031.1
2069.16	1031.39
2070.53	1031.57
2071.9	1031.73
2073.26	1032.25
2074.63	1032.64
2076	1032.85
2077.36	1033.01
2078.73	1033.41
2080.1	1033.67
2081.46	1033.99
2082.83	1033.99
2084.19	1033.94
2085.55	1033.98
2086.92	1033.97
2088.28	1034.1
2089.64	1034.15
2091.01	1033.84
2092.37	1033.53
2093.73	1033.3
2095.09	1033.05
2096.45	1032.73
2097.81	1032.33
2099.17	1032.17
2100.53	1031.98
2101.89	1031.87
2103.25	1031.81
2104.61	1031.85
2105.96	1031.92
2107.32	1032.05
2108.68	1032.58
2110.03	1032.79
2111.39	1032.63
2112.74	1032.59
2114.1	1032.57
2115.45	1032.73
2116.81	1032.96
2118.16	1033.17
2119.52	1033.23
2120.87	1033.35
2122.22	1033.37
2123.57	1033.61
2124.93	1033.92
2126.28	1034.03
2127.63	1033.72
2128.98	1033.43
2130.33	1033.41
2131.68	1033.6
2133.03	1033.63
2134.38	1033.6
2135.72	1033.34
2137.07	1033.08
2138.42	1032.85
2139.77	1032.55
2141.11	1031.94
2142.46	1031.25
2143.81	1030.36
2145.15	1029.58
2146.5	1028.97
2147.84	1028.56
2149.19	1028.54
2150.53	1028.8
2151.87	1028.97
2153.22	1029.25
2154.56	1029.55
2155.9	1029.88
2157.24	1030.24
2158.58	1030.61
2159.93	1031.12
2161.27	1031.66
2162.61	1032.1
2163.95	1032.28
2165.28	1032.4
2166.62	1032.79
2167.96	1033.21
2169.3	1033.27
2170.64	1032.8
2171.98	1032.43
2173.31	1032.11
2174.65	1031.91
2175.98	1031.71
2177.32	1031.69
2178.66	1031.75
2179.99	1031.86
2181.32	1031.81
2182.66	1031.64
2183.99	1031.39
2185.33	1031.42
2186.66	1031.44
2187.99	1031.39
2189.32	1031.48
2190.65	1031.59
2191.99	1031.94
2193.32	1032.34
2194.65	1032.58
2195.98	1032.86
2197.31	1033.29
2198.63	1033.64
2199.96	1033.95
2201.29	1034.05
2202.62	1033.81
2203.95	1033.28
2205.27	1032.85
2206.6	1032.65
2207.93	1032.54
2209.25	1032.49
2210.58	1032.64
2211.9	1032.76
2213.23	1032.95
2214.55	1033.22
2215.88	1033.49
2217.2	1033.65
2218.52	1033.64
2219.84	1032.68
2221.17	1032.07
2222.49	1031.78
2223.81	1031.72
2225.13	1031.81
2226.45	1031.94
2227.77	1031.84
2229.09	1031.45
2230.41	1031.13
2231.73	1031
2233.05	1030.99
2234.37	1031.02
2235.68	1031.1
2237	1031.26
2238.32	1031.37
2239.64	1031.64
2240.95	1032.05
2242.27	1032.38
2243.58	1032.7
2244.9	1032.48
2246.21	1032.4
2247.53	1032.11
2248.84	1031.79
2250.15	1031.45
2251.47	1030.92
2252.78	1030.83
2254.09	1030.75
2255.4	1030.8
2256.71	1031.04
2258.02	1031.32
2259.33	1031.7
2260.65	1032.17
2261.96	1032.11
2263.26	1032.04
2264.57	1032.1
2265.88	1032.29
2267.19	1032.56
2268.5	1032.86
2269.8	1033.15
2271.11	1033.43
2272.42	1033.59
2273.72	1033.65
2275.03	1033.48
2276.33	1033.3
2277.64	1032.86
2278.94	1032.4
2280.25	1031.9
2281.55	1031.39
2282.86	1030.73
2284.16	1030.44
2285.46	1030.42
2286.76	1030.61
2288.06	1030.88
2289.37	1031.3
2290.67	1031.6
2291.97	1032.1
2293.27	1032.27
2294.57	1032.25
2295.87	1032.23
2297.17	1032.22
2298.46	1032.22
2299.76	1032.22
2301.06	1032.26
2302.36	1032.31
2303.66	1032.4
2304.95	1032.5
2306.25	1032.6
2307.54	1032.36
2308.84	1032.07
2310.13	1032.42
2311.43	1032.79
2312.72	1033.17
2314.02	1033.5
2315.31	1033.6
2316.6	1033.52
2317.9	1033.51
2319.19	1033.47
2320.48	1033.13
2321.77	1032.15
2323.06	1031.89
2324.35	1031.77
2325.64	1031.92
2326.93	1032.05
2328.22	1032.35
2329.51	1032.57
2330.8	1032.76
2332.09	1032.89
2333.38	1033.06
2334.66	1033.15
2335.95	1033.3
2337.24	1033.53
2338.52	1033.91
2339.81	1033.97
2341.1	1034
2342.38	1033.8
2343.67	1033.5
2344.95	1033.45
2346.23	1033.47
2347.52	1033.43
2348.8	1033.18
2350.08	1033.02
2351.37	1032.88
2352.65	1032.64
2353.93	1032.25
2355.21	1031.84
2356.49	1031.55
2357.77	1031.26
2359.05	1031.37
2360.33	1031.42
2361.61	1031.42
2362.89	1031.38
2364.17	1031.5
2365.45	1031.66
2366.73	1031.91
2368	1032.15
2369.28	1032.37
2370.56	1032.54
2371.83	1032.7
2373.11	1032.78
2374.38	1032.98
2375.66	1033.06
2376.93	1032.99
2378.21	1032.85
2379.48	1032.59
2380.76	1032.31
2382.03	1032.02
2383.3	1031.79
2384.57	1031.58
2385.85	1031.34
2387.12	1031.1
2388.39	1030.78
2389.66	1030.39
2390.93	1030.06
2392.2	1029.86
2393.47	1029.85
2394.74	1029.8
2396.01	1029.79
2397.28	1029.89
2398.54	1030
2399.81	1029.98
2401.08	1029.98
2402.35	1030.04
2403.61	1030.04
2404.88	1029.99
2406.15	1030.01
2407.41	1030.04
2408.68	1030.13
2409.94	1030.25
2411.2	1030.42
2412.47	1030.73
2413.73	1031.13
2415	1031.55
2416.26	1031.58
2417.52	1031.6
2418.78	1031.76
2420.04	1031.95
2421.31	1032.08
2422.57	1032.1
2423.83	1032.2
2425.09	1032.29
2426.35	1032.49
2427.61	1032.72
2428.87	1033.03
2430.12	1033.38
2431.38	1033.77
2432.64	1034.21
2433.9	1034.68
2435.15	1035.15
2436.41	1035.66
2437.67	1036.09
2438.92	1036.14
2440.18	1036.03
2441.43	1035.94
2442.69	1035.77
2443.94	1035.49
2445.2	1035.11
2446.45	1034.7
2447.7	1034.27
2448.96	1033.82
2450.21	1033.4
2451.46	1032.97
2452.71	1032.95
2453.96	1032.59
2455.22	1032.3
2456.47	1031.99
2457.72	1031.78
2458.97	1031.72
2460.22	1031.46
2461.46	1031.25
2462.71	1031.1
2463.96	1031.04
2465.21	1031.09
2466.46	1031.12
2467.7	1031.17
2468.95	1031.25
2470.2	1031.36
2471.44	1031.49
2472.69	1031.6
2473.93	1031.67
2475.18	1031.74
2476.42	1031.75
2477.67	1031.4
2478.91	1030.57
2480.16	1029.79
2481.4	1029.15
2482.64	1028.85
2483.88	1028.7
2485.13	1028.73
2486.37	1029.06
2487.61	1029.69
2488.85	1030.61
2490.09	1031.65
2491.33	1032.37
2492.57	1032.36
2493.81	1032.28
2495.05	1032.28
2496.29	1032.23
2497.53	1032.29
2498.76	1032.35
2500	1032.49
2501.24	1032.77
2502.47	1032.95
2503.71	1033.23
2504.95	1033.4
2506.18	1033.54
2507.42	1033.63
2508.65	1033.38
2509.89	1033.01
2511.12	1032.74
2512.35	1032.5
2513.59	1032.35
2514.82	1032.29
2516.05	1032.44
2517.29	1032.79
2518.52	1033.22
2519.75	1033.6
2520.98	1033.77
2522.21	1033.81
2523.44	1033.83
2524.67	1033.87
2525.9	1033.82
2526.56	1033.74
2527.81	1033.71
2529.06	1033.33
2530.31	1033.09
2531.56	1032.55
2532.81	1031.95
2534.06	1031.41
2535.31	1030.85
2536.56	1030.32
2537.81	1029.83
2539.06	1029.47
2540.3	1029.19
2541.55	1029.44
2542.8	1029.54
2544.04	1029.91
2545.29	1030.28
2546.54	1030.77
2547.78	1031.35
2549.03	1031.42
2550.27	1030.7
2551.52	1030.04
2552.76	1029.96
2554	1030.29
2555.25	1030.84
2556.49	1031.41
2557.73	1031.85
2558.97	1032.31
2560.22	1032.64
2561.46	1032.93
2562.7	1031.66
2563.94	1030.21
2565.18	1029.67
2566.42	1029.83
2567.66	1030.43
2568.9	1031.31
2570.14	1031.05
2571.38	1030.69
2572.61	1030.35
2573.85	1030.03
2575.09	1029.79
2576.33	1029.7
2577.56	1029.89
2578.8	1030.99
2580.03	1031.53
2581.27	1031.41
2582.51	1031
2583.74	1030.6
2584.98	1030.19
2586.21	1029.78
2587.44	1029.39
2588.68	1029.05
2589.91	1028.78
2591.14	1028.53
2592.37	1028.38
2593.61	1028.25
2594.84	1028.01
2596.07	1028.06
2597.3	1028.09
2598.53	1028.36
2599.76	1028.71
2600.99	1029.24
2602.22	1029.74
2603.45	1030.12
2604.68	1030.53
2605.91	1030.96
2607.13	1031.38
2608.36	1031.41
2609.59	1031.33
2610.81	1031.3
2612.04	1031.31
2613.27	1031.32
2614.49	1031.4
2615.72	1031.55
2616.94	1031.69
2618.17	1031.78
2619.39	1031.86
2620.62	1031.94
2621.84	1031.92
2623.06	1031.87
2624.29	1031.87
2625.51	1031.69
2626.73	1031.52
2627.95	1031.3
2629.17	1031.06
2630.4	1030.83
2631.62	1030.55
2632.84	1030.32
2634.06	1030.15
2635.28	1029.95
2636.5	1029.76
2637.71	1029.65
2638.93	1029.65
2640.15	1029.73
2641.37	1030.13
2642.59	1030.48
2643.8	1030.89
2645.02	1031.29
2646.24	1031.65
2647.45	1031.99
2648.67	1032.41
2649.88	1032.53
2651.1	1032.52
2652.31	1032.26
2653.53	1031.92
2654.74	1031.59
2655.96	1031.25
2657.17	1031.11
2658.38	1030.97
2659.59	1030.93
2660.81	1030.95
2662.02	1031.14
2663.23	1031.36
2664.44	1031.72
2665.65	1032.04
2666.86	1032.27
2668.07	1032.25
2669.28	1031.64
2670.49	1031.05
2671.7	1030.48
2672.91	1029.95
2674.12	1029.51
2675.32	1029.47
2676.53	1029.59
2677.74	1029.54
2678.94	1029.47
2680.15	1029.62
2681.36	1029.79
2682.56	1030
2683.77	1030.27
2684.97	1030.65
2686.18	1030.75
2687.38	1030.81
2688.59	1030.86
2689.79	1030.92
2690.99	1030.97
2692.2	1030.93
2693.4	1030.84
2694.6	1030.68
2695.8	1030.48
2697	1030.24
2698.21	1030.11
2699.41	1029.82
2700.61	1029.52
2701.81	1029.29
2703.01	1029.11
2704.21	1029.02
2705.41	1028.99
2706.6	1028.88
2707.8	1029.09
2709	1029.32
2710.2	1029.32
2711.4	1029.56
2712.59	1029.97
2713.79	1030.51
2714.98	1030.85
2716.18	1031.19
2717.38	1031.53
2718.57	1031.66
2719.77	1031.56
2720.96	1031.39
2722.15	1031.22
2723.35	1031.06
2724.54	1030.94
2725.74	1030.87
2726.93	1030.79
2728.12	1030.62
2729.31	1030.62
2730.5	1030.64
2731.7	1030.74
2732.89	1030.91
2734.08	1031.11
2735.27	1031.28
2736.46	1031.54
2737.65	1031.72
2738.84	1031.88
2740.02	1031.98
2741.21	1032.04
2742.4	1032.06
2743.59	1032.07
2744.78	1031.95
2745.96	1031.86
2747.15	1031.78
2748.34	1031.75
2749.52	1031.84
2750.71	1031.94
2751.89	1031.97
2753.08	1032.09
2754.26	1032.09
2755.45	1031.79
2756.63	1031.59
2757.82	1031.42
2759	1031.26
2760.18	1031.09
2761.37	1030.96
2762.55	1030.84
2763.73	1030.71
2764.91	1030.72
2766.09	1030.78
2767.27	1030.91
2768.45	1031.25
2769.63	1031.78
2770.81	1031.96
2771.99	1032.14
2773.17	1032.28
2774.35	1032.51
2775.53	1032.78
2776.71	1033.01
2777.89	1033.13
2779.06	1033.11
2780.24	1032.86
2781.42	1032.5
2782.59	1032.11
2783.77	1031.75
2784.95	1031.51
2786.12	1031.28
2787.3	1031.17
2788.47	1031.11
2789.65	1031.15
2790.82	1031.27
2791.99	1031.44
2793.17	1031.66
2794.34	1031.8
2795.51	1031.79
2796.68	1031.62
2797.86	1031.3
2799.03	1030.92
2800.2	1030.56
2801.37	1030.19
2802.54	1029.85
2803.71	1029.95
2804.88	1030.05
2806.05	1030.18
2807.22	1030.29
2808.39	1030.41
2809.56	1030.75
2810.73	1031.02
2811.89	1031.24
2813.06	1031.21
2814.23	1031.47
2815.4	1031.73
2816.56	1031.79
2817.73	1031.46
2818.89	1031.19
2820.06	1031.1
2821.22	1030.89
2822.39	1030.73
2823.55	1030.86
2824.72	1031.06
2825.88	1031.25
2827.05	1031.46
2828.21	1031.68
2829.37	1031.72
2830.53	1031.28
2831.7	1030.82
2832.86	1030.36
2834.02	1030.17
2835.18	1029.97
2836.34	1029.84
2837.5	1029.59
2838.66	1029.55
2839.82	1029.98
2840.98	1030.49
2842.14	1031.22
2843.3	1031.33
2844.46	1031.39
2845.62	1031.53
2846.77	1031.73
2847.93	1032.06
2849.09	1032.39
2850.24	1032.72
2851.4	1032.63
2852.56	1032.52
2853.71	1032.51
2854.87	1032.52
2856.02	1032.43
2857.18	1032.45
2858.33	1032.73
2859.49	1033.04
2860.64	1033.39
2861.79	1033.62
2862.95	1033.78
2864.1	1033.87
2865.25	1033.42
2866.4	1032.81
2867.55	1032.08
2868.71	1031.53
2869.86	1030.9
2871.01	1029.89
2872.16	1028.89
2873.31	1028.22
2874.46	1027.84
2875.61	1027.78
2876.76	1028.05
2877.91	1029.07
2879.05	1030.49
2880.2	1030.96
2881.35	1030.7
2882.5	1030.33
2883.64	1029.41
2884.79	1028.93
2885.94	1029.41
2887.08	1031.88
2888.23	1032.18
2889.37	1031.68
2890.52	1031.22
2891.66	1031.26
2892.81	1031.38
2893.95	1031.6
2895.1	1031.81
2896.24	1032.49
2897.38	1032.56
2898.52	1032.42
2899.67	1032.3
2900.81	1032.29
2901.95	1032.34
2903.09	1032.38
2904.23	1031.97
2905.37	1031.4
2906.51	1030.87
2907.65	1030.47
2908.79	1030.09
2909.93	1029.95
2911.07	1029.82
2912.21	1030.03
2913.35	1030.19
2914.49	1030.53
2915.63	1030.72
2916.76	1030.89
2917.9	1031.1
2919.04	1031.2
2920.17	1031.25
2921.31	1031.21
2922.45	1031.27
2923.58	1031.36
2924.72	1031.48
2925.85	1031.64
2926.99	1031.84
2928.12	1032
2929.25	1032.01
2930.39	1031.93
2931.52	1031.85
2932.65	1031.77
2933.79	1031.66
2934.92	1031.55
2936.05	1031.43
2937.18	1031.31
2938.31	1031.11
2939.44	1030.99
2940.57	1030.94
2941.7	1030.92
2942.83	1030.95
2943.96	1031.03
2945.09	1030.83
2946.22	1029.83
2947.35	1028.82
2948.48	1028.07
2949.61	1028.51
2950.73	1029.73
2951.86	1030.51
2952.99	1031.05
2954.11	1031.5
2955.24	1031.61
2956.37	1030.88
2957.49	1030.9
2958.62	1031.05
2959.74	1031.08
2960.87	1031.08
2961.99	1030.87
2963.12	1030.72
2964.24	1030.65
2965.36	1030.62
2966.49	1030.67
2967.61	1030.77
2968.73	1030.85
2969.85	1030.83
2970.97	1030.87
2972.1	1030.98
2973.22	1031.12
2974.34	1031.31
2975.46	1031.34
2976.58	1031.41
2977.7	1031.44
2978.82	1031.49
2979.94	1031.64
2981.06	1031.79
2982.17	1031.91
2983.29	1031.48
2984.41	1030.91
2985.53	1030.39
2986.64	1029.98
2987.76	1029.36
2988.88	1028.83
2989.99	1028.41
2991.11	1028.07
2992.23	1027.99
2993.34	1027.91
2994.46	1028.02
2995.57	1028.3
2996.69	1028.72
2997.8	1029.22
2998.91	1029.66
3000.03	1030.02
3001.14	1030.35
3002.25	1030.67
3003.36	1031.03
3004.48	1031.38
3005.59	1031.78
3006.7	1032.21
3007.81	1032.45
3008.92	1032.3
3010.03	1032.14
3011.14	1032.03
3012.25	1031.89
3013.36	1031.65
3014.47	1031.45
3015.58	1031.3
3016.69	1031.17
3017.8	1031.01
3018.9	1030.96
3020.01	1031.09
3021.12	1031.41
3022.23	1031.7
3023.33	1031.83
3024.44	1031.9
3025.55	1032.28
3026.65	1032.54
3027.76	1032.97
3028.86	1033.51
3029.97	1033.97
3031.07	1034.49
3032.18	1034.69
3033.28	1034.68
3034.38	1034.57
3035.49	1034.38
3036.59	1034.16
3037.69	1034.03
3038.79	1033.85
3039.89	1033.71
3041	1033.58
3042.1	1033.44
3043.2	1033.34
3044.3	1033.16
3045.4	1033.12
3046.5	1033.17
3047.6	1033.14
3048.7	1033.01
3049.8	1032.92
3050.9	1032.56
3051.99	1032.28
3053.09	1031.96
3054.19	1031.59
3055.29	1031.21
3056.38	1030.93
3057.48	1030.71
3058.58	1030.49
3059.67	1030.36
3060.77	1030.29
3061.87	1030.26
3062.96	1030.21
3064.06	1030.26
3065.15	1030.44
3066.25	1030.65
3067.34	1030.97
3068.43	1031.42
3069.53	1031.99
3070.62	1032.52
3071.71	1033.04
3072.8	1033.51
3073.9	1033.83
3074.99	1033.93
3076.08	1033.72
3077.17	1033.4
3078.26	1032.87
3079.35	1032.23
3080.44	1031.59
3081.53	1030.98
3082.62	1030.52
3083.71	1030.44
3084.8	1030.43
3085.89	1030.59
3086.98	1031.1
3088.06	1031.58
3089.15	1031.82
3090.24	1032.07
3091.33	1032.26
3092.41	1032.51
3093.5	1032.77
3094.59	1033.04
3095.67	1033.27
3096.76	1033.41
3097.84	1033.46
3098.93	1033.22
3100.01	1032.91
3101.1	1032.54
3102.18	1032.18
3103.27	1031.77
3104.35	1031.33
3105.43	1030.99
3106.51	1030.76
3107.6	1030.67
3108.68	1030.66
3109.76	1030.7
3110.84	1030.7
3111.92	1030.92
3113	1031.28
3114.09	1031.69
3115.17	1032.11
3116.24	1032.54
3117.32	1032.93
3118.4	1033.26
3119.48	1033.51
3120.56	1033.77
3121.64	1033.93
3122.72	1034.04
3123.24	1034.14
3124.34	1034.11
3125.44	1033.49
3126.53	1033.07
3127.63	1032.55
3128.73	1032.1
3129.82	1031.98
3130.92	1031.98
3132.02	1032.06
3133.11	1031.99
3134.21	1031.84
3135.3	1032.11
3136.39	1032.16
3137.49	1032.26
3138.58	1032.01
3139.68	1032
3140.77	1031.98
3141.86	1031.76
3142.96	1031.88
3144.05	1031.82
3145.14	1031.86
3146.23	1031.79
3147.32	1031.64
3148.41	1031.79
3149.5	1032
3150.59	1032.13
3151.69	1032.32
3152.78	1032.47
3153.86	1032.58
3154.95	1032.36
3156.04	1032.12
3157.13	1031.87
3158.22	1030.98
3159.31	1030.29
3160.4	1029.79
3161.48	1029.54
3162.57	1029.44
3163.66	1029.62
3164.74	1030.11
3165.83	1030.48
3166.92	1031.43
3168	1032.43
3169.09	1033.08
3170.17	1033.42
3171.25	1033.51
3172.34	1033.66
3173.42	1033.52
3174.51	1033.6
3175.59	1033.08
3176.67	1032.52
3177.76	1031.95
3178.84	1031.4
3179.92	1030.92
3181	1030.63
3182.08	1030.36
3183.17	1030.1
3184.25	1029.99
3185.33	1030.02
3186.41	1030.17
3187.49	1030.5
3188.57	1031.05
3189.65	1031.51
3190.73	1031.85
3191.81	1032.61
3192.89	1032.86
3193.96	1032.88
3195.04	1032.87
3196.12	1033.03
3197.2	1032.97
3198.27	1031.78
3199.35	1029.99
